0.010,-0.045,-0.071,-1.601,-0.692
0.020,-0.045,-0.065,-1.547,-1.194
0.030,-0.037,-0.066,-1.490,0.245
0.040,-0.041,-0.059,-1.432,-0.157
0.050,-0.035,-0.063,-1.374,-3.235
0.060,-0.038,-0.057,-1.318,-5.208
0.070,-0.037,-0.062,-1.265,-5.141
0.080,-0.040,-0.055,-1.214,-1.194
0.090,-0.036,-0.064,-1.165,1.081
0.100,-0.041,-0.060,-1.116,-0.792
0.110,-0.036,-0.064,-1.066,-2.064
0.120,-0.038,-0.059,-1.015,0.077
0.130,-0.035,-0.062,-0.960,1.951
0.140,-0.037,-0.057,-0.901,2.720
0.150,-0.032,-0.063,-0.836,2.285
0.160,-0.035,-0.055,-0.767,1.549
0.170,-0.030,-0.060,-0.696,2.285
0.180,-0.032,-0.052,-0.622,3.055
0.190,-0.025,-0.049,-0.546,2.587
0.200,-0.021,-0.029,-0.469,1.081
0.210,-0.012,-0.016,-0.394,0.445
0.220,-0.008,-0.002,-0.320,0.044
0.230,0.013,-0.010,-0.246,0.144
0.240,0.017,0.001,-0.171,0.345
0.250,0.008,-0.011,-0.096,0.011
0.260,-0.008,-0.034,-0.021,0.077
0.270,-0.004,-0.060,0.051,0.546
0.280,-0.023,-0.060,0.119,0.981
0.290,-0.040,-0.068,0.182,2.051
0.300,-0.046,-0.063,0.240,1.583
0.310,-0.039,-0.067,0.291,1.014
0.320,-0.042,-0.059,0.336,0.880
0.330,-0.038,-0.058,0.376,0.512
0.340,-0.041,-0.050,0.412,0.312
0.350,-0.060,-0.069,0.442,-0.023
0.360,0.002,0.083,0.467,0.780
0.370,0.312,0.660,0.487,0.981
0.380,0.482,1.175,0.502,0.780
0.390,0.259,0.694,0.513,0.613
0.400,-0.022,0.050,0.520,-0.424
0.410,-0.085,-0.122,0.524,5.196
0.420,-0.050,-0.085,0.526,6.835
0.430,-0.045,-0.106,0.527,-1.160
0.440,-0.053,-0.102,0.526,-4.573
0.450,-0.045,-0.100,0.524,-2.900
0.460,-0.045,-0.084,0.520,1.416
0.470,-0.038,-0.080,0.515,4.259
0.480,-0.038,-0.063,0.508,3.356
0.490,-0.031,-0.060,0.501,1.717
0.500,-0.030,-0.047,0.495,2.787
0.510,-0.022,-0.045,0.489,2.051
0.520,-0.019,-0.032,0.483,-0.424
0.530,-0.009,-0.030,0.472,-2.766
0.540,-0.006,-0.014,0.453,-2.331
0.550,0.005,-0.008,0.425,-2.231
0.560,0.011,0.011,0.389,-1.662
0.570,0.025,0.022,0.348,-0.592
0.580,0.034,0.048,0.298,0.312
0.590,0.052,0.065,0.242,1.549
0.600,0.066,0.098,0.181,1.282
0.610,0.085,0.124,0.119,1.014
0.620,0.093,0.158,0.061,0.981
0.630,0.103,0.172,0.009,1.282
0.640,0.091,0.177,-0.037,1.851
0.650,0.069,0.128,-0.078,2.051
0.660,0.026,0.068,-0.117,1.282
0.670,-0.007,-0.002,-0.156,1.115
0.680,-0.034,-0.046,-0.195,0.312
0.690,-0.046,-0.082,-0.233,0.680
0.700,-0.056,-0.094,-0.269,0.111
0.710,-0.054,-0.104,-0.302,-0.157
0.720,-0.058,-0.098,-0.330,-1.160
0.730,-0.053,-0.100,-0.352,-1.428
0.740,-0.055,-0.086,-0.366,-0.826
0.750,-0.050,-0.088,-0.374,0.780
0.760,-0.052,-0.081,-0.377,2.553
0.770,-0.049,-0.083,-0.377,3.022
0.780,-0.051,-0.071,-0.375,3.791
0.790,-0.045,-0.073,-0.370,2.453
0.800,-0.048,-0.065,-0.363,3.490
0.810,-0.042,-0.069,-0.352,4.159
0.820,-0.043,-0.061,-0.338,2.386
0.830,-0.039,-0.067,-0.322,0.880
0.840,-0.042,-0.062,-0.303,-0.491
0.850,-0.035,-0.066,-0.283,-2.800
0.860,-0.037,-0.060,-0.262,-3.903
0.870,-0.033,-0.065,-0.240,-3.402
0.880,-0.033,-0.057,-0.218,-2.398
0.890,-0.028,-0.063,-0.196,-1.763
0.900,-0.030,-0.055,-0.174,-1.629
0.910,-0.026,-0.065,-0.153,-0.391
0.920,-0.029,-0.058,-0.132,0.379
0.930,-0.027,-0.061,-0.112,1.382
0.940,-0.029,-0.053,-0.092,0.981
0.950,-0.024,-0.056,-0.071,0.680
0.960,-0.028,-0.049,-0.051,1.315
0.970,-0.024,-0.053,-0.031,2.085
0.980,-0.026,-0.046,-0.012,2.587
0.990,-0.022,-0.050,0.005,2.285
1.000,-0.026,-0.046,0.022,2.018
1.010,-0.023,-0.048,0.037,1.349
1.020,-0.025,-0.038,0.051,0.813
1.030,-0.020,-0.039,0.064,0.847
1.040,-0.016,-0.022,0.077,0.680
1.050,-0.004,-0.012,0.089,0.780
1.060,-0.003,0.009,0.101,0.044
1.070,0.014,0.007,0.113,-0.759
1.080,0.025,0.017,0.124,-0.357
1.090,0.023,0.013,0.136,-0.725
1.100,0.003,-0.005,0.147,-0.625
1.110,0.007,-0.037,0.157,-0.056
1.120,-0.001,-0.040,0.168,1.014
1.130,-0.021,-0.050,0.178,1.416
1.140,-0.037,-0.053,0.188,1.248
1.150,-0.044,-0.075,0.197,1.315
1.160,-0.054,-0.069,0.206,1.048
1.170,-0.011,-0.030,0.214,0.445
1.180,-0.008,-0.016,0.221,1.014
1.190,-0.033,-0.047,0.228,0.111
1.200,-0.040,-0.008,0.235,0.445
1.210,0.178,0.361,0.242,0.981
1.220,0.491,1.057,0.249,0.178
1.230,0.432,1.027,0.255,-0.190
1.240,0.105,0.311,0.263,-0.725
1.250,-0.070,-0.073,0.271,2.118
1.260,-0.051,-0.069,0.278,7.404
1.270,-0.029,-0.074,0.285,0.646
1.280,-0.040,-0.083,0.290,-6.045
1.290,-0.033,-0.079,0.295,-2.733
1.300,-0.032,-0.066,0.300,-0.056
1.310,-0.026,-0.066,0.306,1.549
1.320,-0.025,-0.053,0.313,2.486
1.330,-0.017,-0.048,0.320,2.152
1.340,-0.017,-0.033,0.330,3.155
1.350,-0.008,-0.033,0.343,3.624
1.360,-0.006,-0.017,0.356,0.479
1.370,0.002,-0.013,0.371,-1.796
1.380,0.005,0.002,0.386,-1.930
1.390,0.015,0.002,0.400,-1.027
1.400,0.019,0.019,0.414,-0.725
1.410,0.033,0.024,0.427,-0.826
1.420,0.041,0.048,0.438,0.379
1.430,0.057,0.064,0.448,0.880
1.440,0.071,0.099,0.458,0.981
1.450,0.090,0.122,0.470,0.412
1.460,0.098,0.158,0.487,0.379
1.470,0.110,0.184,0.511,0.579
1.480,0.108,0.194,0.544,1.148
1.490,0.095,0.160,0.583,0.947
1.500,0.058,0.119,0.626,0.680
1.510,0.023,0.042,0.669,0.713
1.520,-0.010,-0.011,0.713,0.546
1.530,-0.025,-0.054,0.755,0.947
1.540,-0.039,-0.076,0.796,0.412
1.550,-0.041,-0.092,0.835,0.044
1.560,-0.043,-0.089,0.872,-0.458
1.570,-0.040,-0.094,0.908,-1.395
1.580,-0.041,-0.082,0.944,-1.428
1.590,-0.034,-0.087,0.977,1.014
1.600,-0.035,-0.076,1.005,1.549
1.610,-0.030,-0.077,1.028,1.382
1.620,-0.033,-0.067,1.047,3.022
1.630,-0.028,-0.068,1.063,2.787
1.640,-0.030,-0.061,1.076,2.419
1.650,-0.026,-0.065,1.085,2.955
1.660,-0.027,-0.056,1.091,2.219
1.670,-0.021,-0.060,1.095,0.646
1.680,-0.021,-0.053,1.098,-0.424
1.690,-0.019,-0.056,1.099,-1.796
1.700,-0.020,-0.046,1.099,-3.268
1.710,-0.015,-0.051,1.098,-2.599
1.720,-0.017,-0.048,1.099,-1.963
1.730,-0.014,-0.055,1.101,-1.395
1.740,-0.015,-0.047,1.106,-1.160
1.750,-0.011,-0.049,1.110,-0.525
1.760,-0.014,-0.044,1.114,0.211
1.770,-0.010,-0.050,1.116,0.579
1.780,-0.012,-0.044,1.117,1.048
1.790,-0.007,-0.051,1.116,0.713
1.800,-0.009,-0.044,1.110,1.181
1.810,-0.006,-0.049,1.100,3.088
1.820,-0.007,-0.042,1.084,4.092
1.830,-0.004,-0.048,1.065,3.022
1.840,-0.007,-0.040,1.045,1.650
1.850,-0.005,-0.044,1.024,0.947
1.860,-0.007,-0.037,1.004,1.048
1.870,-0.003,-0.041,0.982,1.416
1.880,-0.006,-0.034,0.961,1.449
1.890,-0.001,-0.033,0.939,1.449
1.900,0.005,-0.016,0.917,0.847
1.910,0.014,-0.006,0.896,-0.324
1.920,0.018,0.013,0.877,-0.291
1.930,0.039,0.010,0.859,-0.190
1.940,0.045,0.026,0.844,0.278
1.950,0.030,0.010,0.831,-0.190
1.960,0.015,-0.014,0.825,-0.291
1.970,0.019,-0.039,0.825,0.379
1.980,-0.000,-0.042,0.835,1.449
1.990,-0.015,-0.048,0.855,1.750
2.000,-0.016,-0.045,0.884,1.148
2.010,-0.010,-0.047,0.921,1.215
2.020,-0.012,-0.037,0.966,0.947
2.030,-0.007,-0.037,1.015,0.512
2.040,-0.010,-0.030,1.070,0.981
2.050,-0.030,-0.050,1.127,0.412
2.060,0.027,0.101,1.185,0.245
2.070,0.326,0.674,1.242,0.111
2.080,0.486,1.143,1.299,0.345
2.090,0.266,0.648,1.355,0.211
2.100,-0.003,0.057,1.408,-1.194
2.110,-0.068,-0.103,1.454,2.888
2.120,-0.023,-0.071,1.493,7.337
2.130,-0.016,-0.084,1.524,2.219
2.140,-0.022,-0.078,1.546,-3.836
2.150,-0.014,-0.073,1.557,-7.416
2.160,-0.013,-0.058,1.561,-3.402
2.170,-0.007,-0.056,1.563,5.296
2.180,-0.007,-0.043,1.565,6.601
2.190,0.001,-0.043,1.568,2.185
2.200,0.004,-0.028,1.575,0.914
2.210,0.011,-0.025,1.585,1.483
2.220,0.013,-0.012,1.596,0.245
2.230,0.024,-0.010,1.606,-1.127
2.240,0.029,0.006,1.613,-1.428
2.250,0.038,0.010,1.616,-2.064
2.260,0.044,0.028,1.615,-2.131
2.270,0.057,0.039,1.611,-2.365
2.280,0.069,0.065,1.605,-0.859
2.290,0.089,0.085,1.597,-0.090
2.300,0.103,0.119,1.590,0.011
2.310,0.119,0.141,1.583,0.011
2.320,0.126,0.176,1.578,0.245
2.330,0.135,0.193,1.575,0.780
2.340,0.126,0.194,1.574,1.115
2.350,0.102,0.144,1.575,1.516
2.360,0.057,0.083,1.576,1.750
2.370,0.021,0.016,1.577,1.750
2.380,-0.008,-0.026,1.577,1.683
2.390,-0.021,-0.063,1.574,0.847
2.400,-0.032,-0.078,1.567,-0.056
2.410,-0.031,-0.093,1.556,-1.461
2.420,-0.033,-0.086,1.544,-2.398
2.430,-0.028,-0.089,1.530,-2.398
2.440,-0.031,-0.080,1.515,-0.759
2.450,-0.029,-0.081,1.498,0.546
2.460,-0.032,-0.069,1.480,1.248
2.470,-0.029,-0.074,1.462,1.616
2.480,-0.031,-0.064,1.443,2.921
2.490,-0.026,-0.067,1.427,5.965
2.500,-0.026,-0.061,1.414,5.798
2.510,-0.022,-0.064,1.404,0.144
2.520,-0.022,-0.058,1.397,-2.365
2.530,-0.015,-0.063,1.392,-1.495
2.540,-0.015,-0.055,1.389,-0.257
2.550,-0.011,-0.059,1.385,-1.796
2.560,-0.012,-0.053,1.381,-3.870
2.570,-0.007,-0.057,1.376,-4.673
2.580,-0.010,-0.051,1.370,-2.967
2.590,-0.010,-0.058,1.363,-0.659
2.600,-0.011,-0.052,1.354,0.780
2.610,-0.008,-0.058,1.345,0.011
2.620,-0.012,-0.054,1.334,-0.826
2.630,-0.009,-0.058,1.322,0.680
2.640,-0.011,-0.050,1.308,2.152
2.650,-0.009,-0.056,1.293,2.888
2.660,-0.011,-0.051,1.277,3.456
2.670,-0.009,-0.053,1.260,3.456
2.680,-0.011,-0.045,1.242,2.620
2.690,-0.007,-0.045,1.225,2.219
2.700,-0.003,-0.026,1.207,1.784
2.710,0.004,-0.014,1.188,1.784
2.720,0.011,0.001,1.169,1.549
2.730,0.030,-0.003,1.150,1.115
2.740,0.034,0.011,1.129,0.312
2.750,0.021,-0.006,1.108,0.512
2.760,0.009,-0.026,1.084,0.044
2.770,0.014,-0.049,1.060,0.044
2.780,-0.008,-0.057,1.035,0.613
2.790,-0.022,-0.062,1.009,0.847
2.800,-0.024,-0.059,0.983,0.813
2.810,-0.020,-0.064,0.957,0.111
2.820,-0.022,-0.052,0.929,-0.257
2.830,-0.020,-0.053,0.901,0.512
2.840,-0.020,-0.047,0.873,0.479
2.850,-0.038,-0.067,0.846,1.181
2.860,0.005,0.073,0.819,0.880
2.870,0.278,0.634,0.791,0.479
2.880,0.448,1.143,0.763,1.048
2.890,0.250,0.690,0.732,1.148
2.900,-0.008,0.077,0.695,-0.023
2.910,-0.077,-0.107,0.651,2.620
2.920,-0.033,-0.081,0.601,7.337
2.930,-0.020,-0.090,0.546,2.654
2.940,-0.028,-0.087,0.490,-4.907
2.950,-0.022,-0.081,0.436,-8.085
2.960,-0.020,-0.065,0.386,-6.045
2.970,-0.016,-0.062,0.339,4.828
2.980,-0.013,-0.046,0.296,9.378
2.990,-0.008,-0.039,0.256,3.088
3.000,-0.005,-0.027,0.218,-1.361
3.010,0.004,-0.022,0.182,-0.725
3.020,0.005,-0.009,0.145,0.981
3.030,0.011,-0.004,0.102,1.081
3.040,0.017,0.016,0.047,-0.123
3.050,0.026,0.023,-0.022,-2.298
3.060,0.032,0.037,-0.113,-2.599
3.070,0.044,0.040,-0.232,-2.064
3.080,0.055,0.062,-0.373,-0.759
3.090,0.070,0.080,-0.526,0.445
3.100,0.086,0.112,-0.682,1.483
3.110,0.104,0.134,-0.832,0.646
3.120,0.113,0.162,-0.976,0.579
3.130,0.119,0.174,-1.110,1.014
3.140,0.109,0.176,-1.231,1.616
3.150,0.083,0.130,-1.332,1.851
3.160,0.039,0.069,-1.410,2.051
3.170,0.001,0.000,-1.465,2.285
3.180,-0.026,-0.039,-1.498,1.717
3.190,-0.039,-0.074,-1.507,1.416
3.200,-0.047,-0.088,-1.491,0.579
3.210,-0.047,-0.100,-1.452,-0.324
3.220,-0.049,-0.097,-1.388,-0.993
3.230,-0.049,-0.101,-1.299,-1.495
3.240,-0.049,-0.093,-1.187,-0.558
3.250,-0.044,-0.091,-1.063,0.847
3.260,-0.045,-0.081,-0.933,0.847
3.270,-0.044,-0.083,-0.807,1.851
3.280,-0.045,-0.074,-0.687,3.088
3.290,-0.041,-0.072,-0.578,6.634
3.300,-0.042,-0.062,-0.478,6.668
3.310,-0.037,-0.063,-0.388,2.051
3.320,-0.035,-0.057,-0.307,-0.759
3.330,-0.031,-0.062,-0.236,0.379
3.340,-0.029,-0.053,-0.172,0.579
3.350,-0.025,-0.057,-0.116,-1.562
3.360,-0.027,-0.053,-0.067,-4.773
3.370,-0.025,-0.056,-0.025,-5.944
3.380,-0.024,-0.050,0.010,-3.268
3.390,-0.023,-0.056,0.039,-0.023
3.400,-0.025,-0.052,0.062,-0.056
3.410,-0.024,-0.057,0.080,-1.294
3.420,-0.025,-0.052,0.093,-0.859
3.430,-0.023,-0.058,0.101,0.780
3.440,-0.024,-0.056,0.105,1.951
3.450,-0.023,-0.063,0.106,1.449
3.460,-0.022,-0.057,0.104,1.349
3.470,-0.021,-0.060,0.100,1.282
3.480,-0.022,-0.052,0.096,2.018
3.490,-0.019,-0.054,0.092,2.453
3.500,-0.019,-0.046,0.086,1.817
3.510,-0.016,-0.043,0.078,0.747
3.520,-0.012,-0.027,0.068,0.211
3.530,-0.004,-0.013,0.056,0.680
3.540,0.001,0.007,0.046,1.014
3.550,0.017,0.001,0.037,0.579
3.560,0.028,0.008,0.031,0.077
3.570,0.024,0.004,0.028,0.011
3.580,0.010,-0.012,0.027,-0.558
3.590,0.010,-0.040,0.028,-0.090
3.600,0.001,-0.043,0.028,0.379
3.610,-0.021,-0.051,0.028,1.315
3.620,-0.031,-0.052,0.027,1.416
3.630,-0.027,-0.056,0.025,1.081
3.640,-0.027,-0.049,0.024,0.914
3.650,-0.027,-0.051,0.024,0.680
3.660,-0.028,-0.043,0.025,0.546
3.670,-0.037,-0.058,0.028,0.312
3.680,-0.042,-0.021,0.032,0.412
3.690,0.168,0.339,0.038,0.178
3.700,0.480,1.045,0.044,0.278
3.710,0.426,1.038,0.051,0.479
3.720,0.109,0.311,0.058,-0.324
3.730,-0.069,-0.082,0.064,2.285
3.740,-0.054,-0.086,0.070,6.768
3.750,-0.033,-0.089,0.074,1.382
3.760,-0.042,-0.099,0.079,-5.175
3.770,-0.039,-0.096,0.085,-2.599
3.780,-0.036,-0.083,0.092,0.713
3.790,-0.030,-0.080,0.101,2.419
3.800,-0.027,-0.070,0.110,3.022
3.810,-0.023,-0.067,0.120,2.285
3.820,-0.020,-0.055,0.130,2.754
3.830,-0.014,-0.052,0.142,3.122
3.840,-0.011,-0.038,0.155,0.412
3.850,-0.006,-0.035,0.168,-2.231
3.860,-0.001,-0.020,0.178,-3.034
3.870,0.006,-0.014,0.183,-1.729
3.880,0.012,0.003,0.175,-1.629
3.890,0.022,0.012,0.144,-1.395
3.900,0.034,0.035,0.088,-0.056
3.910,0.049,0.053,0.015,1.282
3.920,0.064,0.085,-0.066,1.951
3.930,0.081,0.112,-0.147,1.516
3.940,0.094,0.144,-0.223,0.780
3.950,0.104,0.163,-0.289,1.014
3.960,0.103,0.179,-0.343,1.884
3.970,0.086,0.154,-0.387,1.449
3.980,0.051,0.101,-0.421,1.181
3.990,0.013,0.026,-0.447,1.081
4.000,-0.019,-0.029,-0.469,0.680
4.010,-0.037,-0.071,-0.487,0.813
4.020,-0.046,-0.091,-0.505,0.680
4.030,-0.051,-0.108,-0.520,0.813
4.040,-0.050,-0.106,-0.534,-0.291
4.050,-0.048,-0.105,-0.543,-0.926
4.060,-0.047,-0.096,-0.549,-1.194
4.070,-0.045,-0.098,-0.552,0.579
4.080,-0.043,-0.092,-0.552,2.185
4.090,-0.041,-0.096,-0.550,2.319
4.100,-0.039,-0.087,-0.546,2.520
4.110,-0.038,-0.084,-0.538,1.951
4.120,-0.036,-0.077,-0.526,2.754
4.130,-0.035,-0.078,-0.510,4.426
4.140,-0.036,-0.068,-0.491,3.289
4.150,-0.034,-0.070,-0.469,0.947
4.160,-0.032,-0.066,-0.444,0.011
4.170,-0.029,-0.069,-0.418,-1.461
4.180,-0.028,-0.064,-0.391,-2.867
4.190,-0.025,-0.068,-0.361,-2.566
4.200,-0.024,-0.067,-0.332,-2.465
4.210,-0.024,-0.072,-0.302,-2.198
4.220,-0.025,-0.066,-0.272,-2.465
4.230,-0.022,-0.067,-0.243,-2.231
4.240,-0.021,-0.061,-0.214,-0.324
4.250,-0.021,-0.062,-0.184,1.583
4.260,-0.021,-0.056,-0.156,1.616
4.270,-0.020,-0.057,-0.128,0.880
4.280,-0.020,-0.054,-0.102,1.248
4.290,-0.019,-0.059,-0.079,1.951
4.300,-0.019,-0.055,-0.058,2.051
4.310,-0.019,-0.061,-0.040,2.486
4.320,-0.017,-0.059,-0.024,1.784
4.330,-0.017,-0.060,-0.008,1.817
4.340,-0.017,-0.053,0.008,1.583
4.350,-0.016,-0.054,0.024,0.713
4.360,-0.014,-0.047,0.040,0.646
4.370,-0.012,-0.045,0.056,0.512
4.380,-0.011,-0.035,0.072,0.546
4.390,-0.003,-0.028,0.090,-0.257
4.400,0.005,-0.007,0.111,-0.993
4.410,0.014,-0.001,0.135,-0.692
4.420,0.031,0.003,0.159,-0.190
4.430,0.037,0.005,0.182,0.379
4.440,0.017,-0.008,0.205,0.011
4.450,0.008,-0.038,0.228,0.278
4.460,0.012,-0.047,0.250,1.248
4.470,-0.008,-0.056,0.271,1.984
4.480,-0.026,-0.056,0.288,1.683
4.490,-0.025,-0.058,0.303,1.750
4.500,-0.021,-0.050,0.315,1.416
4.510,-0.020,-0.048,0.325,1.516
4.520,-0.020,-0.040,0.335,0.947
4.530,-0.024,-0.046,0.347,0.680
4.540,-0.048,-0.047,0.360,0.077
4.550,0.067,0.158,0.375,0.245
4.560,0.407,0.801,0.389,0.211
4.570,0.514,1.159,0.403,-0.090
4.580,0.233,0.574,0.416,-0.257
4.590,-0.033,0.002,0.428,-0.157
4.600,-0.069,-0.093,0.438,6.066
4.610,-0.033,-0.073,0.447,4.192
4.620,-0.038,-0.092,0.454,-5.309
4.630,-0.040,-0.089,0.461,-4.405
4.640,-0.036,-0.078,0.468,0.245
4.650,-0.032,-0.074,0.478,2.319
4.660,-0.028,-0.062,0.491,2.252
4.670,-0.024,-0.057,0.508,2.453
4.680,-0.019,-0.047,0.527,3.122
4.690,-0.014,-0.041,0.549,3.590
4.700,-0.010,-0.029,0.574,2.352
4.710,-0.004,-0.027,0.600,-1.227
4.720,0.002,-0.017,0.621,-2.064
4.730,0.006,-0.011,0.631,-1.027
4.740,0.014,0.003,0.626,-0.859
4.750,0.024,0.014,0.609,-0.993
4.760,0.036,0.032,0.581,-0.357
4.770,0.049,0.049,0.547,1.215
4.780,0.065,0.080,0.511,0.747
4.790,0.082,0.111,0.478,0.245
4.800,0.097,0.144,0.450,-0.090
4.810,0.107,0.170,0.428,0.747
4.820,0.111,0.192,0.412,0.880
4.830,0.102,0.181,0.402,0.780
4.840,0.074,0.136,0.399,0.680
4.850,0.034,0.065,0.400,1.014
4.860,0.001,0.003,0.405,1.048
4.870,-0.025,-0.051,0.414,0.512
4.880,-0.038,-0.080,0.425,0.613
4.890,-0.045,-0.097,0.441,-0.157
4.900,-0.046,-0.103,0.465,-0.458
4.910,-0.045,-0.107,0.500,-0.926
4.920,-0.044,-0.098,0.543,-1.395
4.930,-0.042,-0.093,0.593,-0.090
4.940,-0.040,-0.082,0.646,1.750
4.950,-0.039,-0.075,0.697,1.349
4.960,-0.037,-0.066,0.745,2.386
4.970,-0.037,-0.062,0.790,2.687
4.980,-0.035,-0.055,0.831,2.219
4.990,-0.033,-0.060,0.868,3.122
5.000,-0.031,-0.062,0.901,2.453
5.010,-0.030,-0.069,0.929,1.081
5.020,-0.027,-0.065,0.954,0.646
5.030,-0.024,-0.062,0.977,-0.458
5.040,-0.023,-0.054,0.998,-2.666
5.050,-0.022,-0.053,1.018,-2.867
5.060,-0.019,-0.047,1.036,-1.930
5.070,-0.018,-0.045,1.055,-1.662
5.080,-0.018,-0.042,1.076,-1.696
5.090,-0.018,-0.043,1.098,-1.662
5.100,-0.015,-0.039,1.120,-0.357
5.110,-0.016,-0.040,1.138,0.780
5.120,-0.014,-0.038,1.153,0.880
5.130,-0.014,-0.038,1.165,-0.123
5.140,-0.013,-0.032,1.173,0.312
5.150,-0.014,-0.037,1.179,1.750
5.160,-0.012,-0.036,1.183,3.523
5.170,-0.013,-0.037,1.184,3.490
5.180,-0.012,-0.033,1.181,2.118
5.190,-0.012,-0.031,1.174,1.449
5.200,-0.011,-0.026,1.163,1.784
5.210,-0.011,-0.025,1.150,1.851
5.220,-0.011,-0.024,1.137,1.282
5.230,-0.015,-0.027,1.126,0.947
5.240,-0.013,-0.022,1.115,0.479
5.250,-0.011,-0.018,1.106,0.111
5.260,-0.003,-0.010,1.098,-0.090
5.270,0.003,-0.001,1.090,0.178
5.280,0.011,0.012,1.084,-0.224
5.290,0.025,0.013,1.077,-0.491
5.300,0.036,0.024,1.069,-0.123
5.310,0.020,0.014,1.062,-0.090
5.320,0.008,-0.012,1.054,0.445
5.330,0.010,-0.037,1.048,0.914
5.340,-0.006,-0.053,1.042,1.650
5.350,-0.026,-0.055,1.036,1.583
5.360,-0.027,-0.052,1.030,0.947
5.370,-0.024,-0.052,1.022,1.215
5.380,-0.022,-0.043,1.012,1.048
5.390,-0.024,-0.040,0.999,0.379
5.400,-0.023,-0.036,0.984,0.412
5.410,-0.045,-0.054,0.969,0.512
5.420,-0.007,0.046,0.956,0.579
5.430,0.271,0.567,0.944,-0.190
5.440,0.492,1.127,0.939,-0.391
5.450,0.303,0.746,0.941,0.144
5.460,0.014,0.093,0.954,-1.060
5.470,-0.083,-0.114,0.976,1.784
5.480,-0.038,-0.089,1.005,7.337
5.490,-0.024,-0.087,1.040,3.490
5.500,-0.028,-0.089,1.083,-2.800
5.510,-0.024,-0.080,1.134,-6.245
5.520,-0.020,-0.066,1.194,-4.439
5.530,-0.015,-0.057,1.259,2.955
5.540,-0.009,-0.048,1.327,6.668
5.550,-0.006,-0.036,1.396,3.256
5.560,-0.001,-0.022,1.461,0.981
5.570,0.001,-0.017,1.523,1.516
5.580,0.005,-0.010,1.577,0.914
5.590,0.011,-0.004,1.624,-0.893
5.600,0.018,0.007,1.661,-0.592
5.610,0.023,0.017,1.688,-0.725
5.620,0.033,0.031,1.708,-1.595
5.630,0.043,0.048,1.719,-1.930
5.640,0.055,0.063,1.724,-1.796
5.650,0.070,0.078,1.727,-0.893
5.660,0.088,0.105,1.732,0.445
5.670,0.102,0.131,1.741,0.178
5.680,0.117,0.157,1.754,-0.525
5.690,0.124,0.176,1.770,-0.792
5.700,0.121,0.181,1.785,0.077
5.710,0.096,0.147,1.798,1.115
5.720,0.060,0.088,1.808,2.018
5.730,0.018,0.030,1.814,2.252
5.740,-0.011,-0.020,1.816,1.851
5.750,-0.030,-0.056,1.815,0.680
5.760,-0.037,-0.074,1.813,0.077
5.770,-0.043,-0.082,1.812,-1.160
5.780,-0.045,-0.082,1.813,-1.595
5.790,-0.045,-0.079,1.815,-1.796
5.800,-0.042,-0.074,1.817,-1.127
5.810,-0.043,-0.070,1.818,0.011
5.820,-0.041,-0.070,1.818,0.479
5.830,-0.043,-0.073,1.815,1.181
5.840,-0.041,-0.068,1.806,2.520
5.850,-0.040,-0.062,1.787,5.263
5.860,-0.037,-0.062,1.760,5.229
5.870,-0.033,-0.062,1.729,0.479
5.880,-0.030,-0.051,1.696,-2.398
5.890,-0.031,-0.054,1.664,-1.696
5.900,-0.028,-0.055,1.635,-0.826
5.910,-0.026,-0.053,1.606,-1.763
5.920,-0.022,-0.053,1.578,-3.435
5.930,-0.024,-0.056,1.551,-4.941
5.940,-0.022,-0.059,1.526,-4.372
5.950,-0.022,-0.062,1.503,-1.896
5.960,-0.020,-0.061,1.481,0.345
5.970,-0.021,-0.059,1.460,-0.291
5.980,-0.017,-0.063,1.441,-0.826
5.990,-0.020,-0.066,1.422,0.445
6.000,-0.018,-0.062,1.405,1.282
6.010,-0.018,-0.059,1.389,1.851
6.020,-0.016,-0.059,1.373,2.587
6.030,-0.018,-0.059,1.359,2.687
6.040,-0.014,-0.057,1.346,2.419
6.050,-0.014,-0.054,1.334,1.549
6.060,-0.013,-0.049,1.325,0.680
6.070,-0.009,-0.036,1.317,0.278
6.080,-0.001,-0.017,1.311,0.077
6.090,0.005,-0.008,1.307,0.680
6.100,0.020,-0.006,1.306,0.211
6.110,0.028,0.006,1.309,0.512
6.120,0.018,-0.002,1.318,0.111
6.130,0.003,-0.030,1.336,0.111
6.140,0.007,-0.048,1.359,-0.558
6.150,-0.007,-0.060,1.387,-0.090
6.160,-0.024,-0.065,1.418,0.981
6.170,-0.026,-0.068,1.449,1.349
6.180,-0.021,-0.064,1.482,0.278
6.190,-0.024,-0.060,1.512,0.044
6.200,-0.021,-0.056,1.539,-0.391
6.210,-0.021,-0.049,1.562,0.077
6.220,-0.030,-0.069,1.581,0.312
6.230,-0.021,0.002,1.594,0.312
6.240,0.201,0.479,1.602,-0.056
6.250,0.430,1.097,1.605,-0.023
6.260,0.297,0.818,1.604,1.115
6.270,0.029,0.142,1.600,-0.391
6.280,-0.078,-0.107,1.593,-0.357
6.290,-0.042,-0.108,1.582,5.664
6.300,-0.017,-0.094,1.570,6.869
6.310,-0.026,-0.099,1.557,-0.558
6.320,-0.020,-0.090,1.544,-5.877
6.330,-0.016,-0.080,1.531,-7.818
6.340,-0.011,-0.075,1.518,-0.224
6.350,-0.009,-0.065,1.502,9.746
6.360,-0.002,-0.057,1.485,8.709
6.370,-0.002,-0.050,1.464,2.955
6.380,0.003,-0.043,1.442,-0.157
6.390,0.006,-0.031,1.418,-1.194
6.400,0.012,-0.022,1.392,-0.826
6.410,0.017,-0.010,1.363,-1.127
6.420,0.026,-0.000,1.329,-1.830
6.430,0.031,0.013,1.286,-2.699
6.440,0.042,0.028,1.232,-3.000
6.450,0.054,0.049,1.167,-2.164
6.460,0.072,0.071,1.093,-0.826
6.470,0.086,0.100,1.014,0.144
6.480,0.103,0.128,0.934,0.646
6.490,0.114,0.159,0.852,0.412
6.500,0.122,0.181,0.771,0.245
6.510,0.115,0.182,0.692,0.847
6.520,0.094,0.146,0.616,1.583
6.530,0.051,0.087,0.543,2.051
6.540,0.011,0.019,0.475,1.951
6.550,-0.022,-0.036,0.410,2.085
6.560,-0.036,-0.074,0.348,1.349
6.570,-0.047,-0.093,0.285,0.445
6.580,-0.048,-0.103,0.220,-0.157
6.590,-0.049,-0.103,0.153,-1.629
6.600,-0.046,-0.101,0.084,-2.231
6.610,-0.047,-0.095,0.016,-0.792
6.620,-0.046,-0.093,-0.051,0.747
6.630,-0.048,-0.086,-0.114,0.947
6.640,-0.045,-0.082,-0.176,1.683
6.650,-0.046,-0.081,-0.234,2.352
6.660,-0.044,-0.080,-0.287,5.831
6.670,-0.044,-0.072,-0.334,8.842
6.680,-0.039,-0.070,-0.373,4.192
6.690,-0.039,-0.067,-0.405,-1.294
6.700,-0.033,-0.066,-0.434,-1.662
6.710,-0.034,-0.062,-0.463,-0.157
6.720,-0.032,-0.060,-0.491,0.144
6.730,-0.033,-0.058,-0.521,-2.365
6.740,-0.029,-0.058,-0.551,-4.673
6.750,-0.032,-0.056,-0.582,-4.606
6.760,-0.030,-0.061,-0.612,-0.960
6.770,-0.031,-0.059,-0.643,0.646
6.780,-0.029,-0.061,-0.678,-0.391
6.790,-0.031,-0.061,-0.723,-1.227
6.800,-0.027,-0.063,-0.788,0.011
6.810,-0.030,-0.063,-0.879,1.951
6.820,-0.029,-0.067,-0.991,3.122
6.830,-0.030,-0.063,-1.113,2.419
6.840,-0.026,-0.060,-1.231,1.683
6.850,-0.025,-0.051,-1.335,2.453
6.860,-0.015,-0.038,-1.419,3.390
6.870,-0.013,-0.017,-1.477,3.055
6.880,0.000,-0.008,-1.509,1.784
6.890,0.014,-0.007,-1.517,0.178
6.900,0.017,-0.007,-1.504,-0.224
6.910,-0.002,-0.021,-1.474,0.178
6.920,-0.003,-0.054,-1.432,0.680
6.930,-0.007,-0.068,-1.381,0.847
6.940,-0.025,-0.074,-1.322,1.349
6.950,-0.042,-0.073,-1.255,0.847
6.960,-0.037,-0.076,-1.180,0.713
6.970,-0.036,-0.070,-1.097,1.014
6.980,-0.034,-0.066,-1.010,0.713
6.990,-0.036,-0.054,-0.922,0.312
7.000,-0.039,-0.061,-0.839,0.546
7.010,-0.060,-0.053,-0.762,-0.056
7.020,0.078,0.211,-0.690,0.144
7.030,0.396,0.891,-0.621,0.412
7.040,0.445,1.123,-0.552,1.148
7.050,0.161,0.461,-0.483,0.713
7.060,-0.055,-0.044,-0.414,0.312
7.070,-0.072,-0.109,-0.348,5.631
7.080,-0.037,-0.091,-0.285,5.898
7.090,-0.045,-0.107,-0.227,-0.357
7.100,-0.042,-0.105,-0.176,-3.435
7.110,-0.039,-0.096,-0.130,-4.037
7.120,-0.033,-0.092,-0.091,1.282
7.130,-0.033,-0.082,-0.059,6.066
7.140,-0.027,-0.074,-0.033,3.590
7.150,-0.027,-0.066,-0.012,1.483
7.160,-0.021,-0.061,0.005,1.483
7.170,-0.019,-0.046,0.020,1.148
7.180,-0.010,-0.039,0.030,-0.792
7.190,-0.006,-0.027,0.034,-2.064
7.200,0.003,-0.021,0.034,-2.566
7.210,0.008,-0.008,0.035,-2.867
7.220,0.022,0.004,0.039,-2.967
7.230,0.030,0.026,0.046,-1.461
7.240,0.045,0.044,0.056,0.077
7.250,0.057,0.071,0.066,1.148
7.260,0.076,0.098,0.075,1.014
7.270,0.087,0.131,0.080,0.312
7.280,0.099,0.155,0.080,0.981
7.290,0.099,0.171,0.075,1.717
7.300,0.088,0.152,0.066,1.884
7.310,0.054,0.101,0.054,1.717
7.320,0.017,0.025,0.039,2.051
7.330,-0.019,-0.033,0.022,1.717
7.340,-0.037,-0.079,0.005,1.616
7.350,-0.051,-0.101,-0.013,1.081
7.360,-0.052,-0.115,-0.030,0.245
7.370,-0.056,-0.114,-0.046,-0.291
7.380,-0.053,-0.116,-0.061,-1.127
7.390,-0.054,-0.110,-0.075,-1.863
7.400,-0.050,-0.110,-0.088,-1.361
7.410,-0.051,-0.101,-0.100,0.546
7.420,-0.047,-0.099,-0.113,1.683
7.430,-0.050,-0.094,-0.128,2.687
7.440,-0.045,-0.096,-0.146,3.490
7.450,-0.047,-0.091,-0.165,2.453
7.460,-0.044,-0.089,-0.184,3.356
7.470,-0.045,-0.081,-0.200,4.125
7.480,-0.041,-0.083,-0.213,2.854
7.490,-0.042,-0.079,-0.222,1.382
7.500,-0.038,-0.082,-0.227,-0.324
7.510,-0.038,-0.079,-0.228,-2.800
7.520,-0.032,-0.082,-0.226,-4.071
7.530,-0.033,-0.077,-0.223,-3.034
7.540,-0.031,-0.080,-0.219,-2.365
7.550,-0.034,-0.076,-0.213,-2.566
7.560,-0.031,-0.078,-0.205,-2.298
7.570,-0.033,-0.074,-0.195,-1.127
7.580,-0.029,-0.078,-0.184,1.382
7.590,-0.031,-0.074,-0.173,2.252
7.600,-0.027,-0.077,-0.162,1.282
7.610,-0.030,-0.072,-0.151,0.813
7.620,-0.026,-0.074,-0.139,1.315
7.630,-0.028,-0.069,-0.127,2.486
7.640,-0.025,-0.072,-0.115,2.888
7.650,-0.027,-0.068,-0.102,2.821
7.660,-0.023,-0.067,-0.089,2.219
7.670,-0.026,-0.062,-0.076,1.951
7.680,-0.021,-0.059,-0.063,0.646
7.690,-0.016,-0.037,-0.050,0.512
7.700,-0.008,-0.021,-0.036,0.747
7.710,-0.002,-0.006,-0.023,0.613
7.720,0.017,-0.011,-0.010,0.211
7.730,0.023,-0.002,0.003,-0.458
7.740,0.017,-0.009,0.014,-0.893
7.750,0.002,-0.031,0.025,-0.826
7.760,0.007,-0.054,0.036,0.144
7.770,-0.012,-0.056,0.045,1.282
7.780,-0.030,-0.067,0.053,1.483
7.790,-0.030,-0.062,0.059,0.680
7.800,-0.026,-0.058,0.065,0.981
7.810,-0.031,-0.049,0.069,1.081
7.820,-0.027,-0.050,0.073,0.880
7.830,-0.030,-0.046,0.076,0.044
7.840,-0.047,-0.060,0.078,0.312
7.850,-0.006,0.052,0.079,1.382
7.860,0.294,0.574,0.078,0.579
7.870,0.520,1.169,0.077,0.077
7.880,0.325,0.806,0.076,0.178
7.890,0.014,0.117,0.075,-0.324
7.900,-0.080,-0.104,0.075,4.627
7.910,-0.046,-0.076,0.077,7.002
7.920,-0.041,-0.104,0.081,-2.632
7.930,-0.047,-0.104,0.086,-6.580
7.940,-0.038,-0.100,0.095,-2.365
7.950,-0.036,-0.088,0.104,2.185
7.960,-0.031,-0.082,0.115,4.059
7.970,-0.030,-0.069,0.127,2.687
7.980,-0.026,-0.068,0.139,1.884
7.990,-0.024,-0.054,0.150,2.587
8.000,-0.015,-0.049,0.161,2.720
8.010,-0.013,-0.035,0.171,0.044
8.020,-0.005,-0.032,0.182,-2.566
8.030,-0.002,-0.021,0.191,-2.264
8.040,0.009,-0.014,0.199,-2.064
8.050,0.015,0.005,0.206,-1.830
8.060,0.026,0.015,0.210,-0.792
8.070,0.034,0.038,0.209,1.014
8.080,0.052,0.059,0.204,1.683
8.090,0.065,0.091,0.197,1.081
8.100,0.083,0.114,0.186,0.579
8.110,0.090,0.145,0.174,0.880
8.120,0.101,0.165,0.156,1.382
8.130,0.094,0.170,0.129,1.483
8.140,0.075,0.127,0.087,1.516
8.150,0.035,0.070,0.031,1.014
8.160,0.001,0.001,-0.040,1.181
8.170,-0.027,-0.045,-0.125,0.880
8.180,-0.040,-0.082,-0.222,0.813
8.190,-0.051,-0.097,-0.325,0.345
8.200,-0.049,-0.111,-0.428,-0.190
8.210,-0.053,-0.107,-0.524,-0.491
8.220,-0.051,-0.111,-0.609,-1.194
8.230,-0.051,-0.099,-0.677,-0.993
8.240,-0.046,-0.098,-0.730,0.747
8.250,-0.050,-0.089,-0.768,1.884
8.260,-0.047,-0.088,-0.793,2.720
8.270,-0.048,-0.081,-0.808,2.720
8.280,-0.042,-0.083,-0.813,2.051
8.290,-0.045,-0.074,-0.809,3.256
8.300,-0.038,-0.075,-0.796,4.259
8.310,-0.040,-0.066,-0.775,1.717
8.320,-0.036,-0.073,-0.745,0.312
8.330,-0.037,-0.070,-0.709,-0.324
8.340,-0.033,-0.073,-0.668,-2.030
8.350,-0.035,-0.066,-0.624,-2.800
8.360,-0.032,-0.073,-0.578,-2.398
8.370,-0.034,-0.065,-0.534,-1.997
8.380,-0.029,-0.071,-0.488,-1.595
8.390,-0.032,-0.065,-0.441,-1.294
8.400,-0.026,-0.066,-0.391,-0.424
8.410,-0.028,-0.058,-0.337,0.914
8.420,-0.025,-0.064,-0.280,1.516
8.430,-0.029,-0.060,-0.220,0.847
8.440,-0.025,-0.064,-0.162,0.914
8.450,-0.027,-0.059,-0.106,1.483
8.460,-0.022,-0.065,-0.052,2.285
8.470,-0.026,-0.059,-0.000,2.754
8.480,-0.020,-0.064,0.049,2.018
8.490,-0.022,-0.058,0.095,2.252
8.500,-0.020,-0.061,0.138,1.449
8.510,-0.021,-0.056,0.178,1.148
8.520,-0.017,-0.059,0.215,1.115
8.530,-0.019,-0.052,0.251,0.981
8.540,-0.015,-0.058,0.284,0.914
8.550,-0.018,-0.050,0.316,-0.023
8.560,-0.007,-0.044,0.344,-0.291
8.570,-0.001,-0.019,0.371,-0.558
8.580,0.008,-0.009,0.396,-0.659
8.590,0.018,-0.002,0.420,0.077
8.600,0.034,0.000,0.443,0.613
8.610,0.024,0.007,0.464,0.445
8.620,0.010,-0.025,0.485,0.479
8.630,0.006,-0.043,0.505,1.048
8.640,0.001,-0.058,0.524,1.248
8.650,-0.026,-0.056,0.540,1.583
8.660,-0.030,-0.067,0.555,1.181
8.670,-0.030,-0.064,0.569,1.148
8.680,-0.025,-0.070,0.581,1.048
8.690,-0.028,-0.060,0.591,1.081
8.700,-0.022,-0.058,0.602,0.512
8.710,-0.040,-0.065,0.612,0.345
8.720,-0.033,-0.024,0.622,0.044
8.730,0.203,0.393,0.632,0.278
8.740,0.510,1.064,0.641,0.144
8.750,0.409,0.958,0.651,0.044
8.760,0.083,0.229,0.661,-0.926
8.770,-0.081,-0.098,0.673,2.720
8.780,-0.049,-0.100,0.688,7.772
8.790,-0.037,-0.102,0.706,0.646
8.800,-0.040,-0.123,0.724,-6.145
8.810,-0.038,-0.110,0.741,-2.800
8.820,-0.030,-0.106,0.758,0.680
8.830,-0.031,-0.091,0.775,3.490
8.840,-0.023,-0.090,0.793,3.824
8.850,-0.021,-0.076,0.811,3.456
8.860,-0.015,-0.072,0.829,3.155
8.870,-0.014,-0.059,0.847,3.189
8.880,-0.007,-0.057,0.863,0.312
8.890,-0.005,-0.042,0.877,-2.566
8.900,0.005,-0.038,0.889,-2.465
8.910,0.008,-0.023,0.900,-1.830
8.920,0.021,-0.021,0.909,-2.365
8.930,0.029,-0.000,0.919,-1.495
8.940,0.044,0.013,0.928,0.747
8.950,0.050,0.042,0.939,1.382
8.960,0.070,0.065,0.951,1.048
8.970,0.082,0.104,0.966,0.144
8.980,0.099,0.128,0.984,-0.157
8.990,0.102,0.160,1.003,0.345
9.000,0.106,0.164,1.022,1.248
9.010,0.087,0.147,1.040,1.650
9.020,0.057,0.083,1.056,1.549
9.030,0.015,0.020,1.070,1.583
9.040,-0.012,-0.044,1.082,1.014
9.050,-0.037,-0.080,1.092,0.880
9.060,-0.042,-0.108,1.100,0.479
9.070,-0.048,-0.111,1.106,-0.056
9.080,-0.046,-0.123,1.110,-0.424
9.090,-0.049,-0.115,1.114,-1.227
9.100,-0.042,-0.117,1.117,-1.261
9.110,-0.044,-0.108,1.120,0.512
9.120,-0.039,-0.110,1.124,1.081
9.130,-0.041,-0.101,1.129,1.215
9.140,-0.036,-0.102,1.135,2.620
9.150,-0.039,-0.093,1.143,3.390
9.160,-0.034,-0.099,1.153,3.456
9.170,-0.035,-0.090,1.163,2.854
9.180,-0.029,-0.093,1.173,1.282
9.190,-0.031,-0.086,1.183,0.981
9.200,-0.025,-0.089,1.191,-0.257
9.210,-0.029,-0.079,1.198,-2.365
9.220,-0.024,-0.082,1.203,-2.967
9.230,-0.025,-0.075,1.205,-1.963
9.240,-0.020,-0.080,1.205,-1.662
9.250,-0.022,-0.074,1.203,-1.696
9.260,-0.019,-0.080,1.201,-1.595
9.270,-0.023,-0.071,1.198,-0.324
9.280,-0.020,-0.078,1.195,0.947
9.290,-0.021,-0.072,1.189,0.445
9.300,-0.015,-0.076,1.181,0.412
9.310,-0.019,-0.065,1.168,0.178
9.320,-0.016,-0.071,1.152,1.549
9.330,-0.019,-0.066,1.133,3.022
9.340,-0.015,-0.071,1.114,2.988
9.350,-0.020,-0.064,1.098,2.219
9.360,-0.012,-0.069,1.084,1.717
9.370,-0.015,-0.061,1.074,1.148
9.380,-0.013,-0.069,1.066,1.148
9.390,-0.015,-0.058,1.059,0.847
9.400,-0.010,-0.062,1.053,0.546
9.410,-0.015,-0.056,1.047,0.278
9.420,-0.007,-0.053,1.041,0.111
9.430,-0.001,-0.030,1.037,0.178
9.440,0.009,-0.019,1.034,-0.224
9.450,0.014,-0.004,1.033,-0.190
9.460,0.035,-0.005,1.030,-0.056
9.470,0.035,0.010,1.026,-0.090
9.480,0.019,-0.021,1.020,-0.224
9.490,0.010,-0.036,1.013,0.379
9.500,0.014,-0.052,1.004,0.646
9.510,-0.013,-0.055,0.995,1.081
9.520,-0.025,-0.065,0.986,1.248
9.530,-0.027,-0.057,0.979,0.512
9.540,-0.021,-0.060,0.972,0.345
9.550,-0.024,-0.047,0.969,0.947
9.560,-0.021,-0.046,0.969,0.312
9.570,-0.027,-0.045,0.976,0.144
9.580,-0.043,-0.056,0.991,0.178
9.590,0.066,0.184,1.013,0.111
9.600,0.386,0.828,1.042,0.445
9.610,0.456,1.103,1.076,0.211
9.620,0.183,0.473,1.114,-0.157
9.630,-0.054,-0.019,1.159,-1.060
9.640,-0.071,-0.123,1.210,4.259
9.650,-0.029,-0.090,1.265,7.069
9.660,-0.024,-0.103,1.325,1.382
9.670,-0.031,-0.094,1.389,-4.037
9.680,-0.023,-0.093,1.456,-8.286
9.690,-0.021,-0.075,1.519,-4.071
9.700,-0.015,-0.076,1.574,5.698
9.710,-0.015,-0.059,1.622,7.002
9.720,-0.007,-0.056,1.663,2.654
9.730,-0.005,-0.040,1.699,0.445
9.740,0.004,-0.035,1.729,-0.224
9.750,0.005,-0.018,1.754,-0.826
9.760,0.014,-0.019,1.773,-0.759
9.770,0.018,-0.001,1.785,-0.659
9.780,0.030,0.005,1.790,-1.328
9.790,0.035,0.027,1.789,-1.763
9.800,0.049,0.038,1.784,-1.294
9.810,0.059,0.063,1.777,-0.926
9.820,0.079,0.080,1.769,0.245
9.830,0.092,0.118,1.761,0.780
9.840,0.108,0.142,1.754,0.044
9.850,0.113,0.177,1.748,-0.391
9.860,0.121,0.187,1.741,0.312
9.870,0.107,0.184,1.733,1.315
9.880,0.079,0.130,1.725,2.185
9.890,0.034,0.069,1.717,1.784
9.900,0.002,0.001,1.709,1.851
9.910,-0.026,-0.041,1.700,1.014
9.920,-0.036,-0.080,1.691,0.144
9.930,-0.048,-0.093,1.683,-0.491
9.940,-0.047,-0.106,1.678,-1.863
9.950,-0.051,-0.098,1.676,-2.699
9.960,-0.047,-0.100,1.676,-2.666
9.970,-0.048,-0.091,1.676,-0.592
9.980,-0.045,-0.096,1.675,0.914
9.990,-0.047,-0.079,1.671,1.315
10.000,-0.042,-0.080,1.663,1.081
10.010,-0.043,-0.071,1.648,3.724
10.020,-0.038,-0.072,1.626,6.902
10.030,-0.038,-0.064,1.595,5.330
10.040,-0.033,-0.069,1.561,0.011
10.050,-0.034,-0.059,1.526,-1.528
10.060,-0.029,-0.066,1.492,-0.659
10.070,-0.030,-0.061,1.459,-0.859
10.080,-0.024,-0.067,1.429,-2.566
10.090,-0.026,-0.059,1.402,-4.874
10.100,-0.021,-0.064,1.379,-4.874
10.110,-0.025,-0.060,1.359,-2.800
10.120,-0.023,-0.069,1.341,0.044
10.130,-0.027,-0.060,1.325,0.747
10.140,-0.024,-0.068,1.309,-0.692
10.150,-0.027,-0.059,1.294,-0.993
10.160,-0.024,-0.065,1.279,0.178
10.170,-0.026,-0.061,1.263,1.717
10.180,-0.021,-0.066,1.247,3.189
10.190,-0.025,-0.057,1.231,3.992
10.200,-0.022,-0.061,1.216,3.323
10.210,-0.025,-0.052,1.201,1.984
10.220,-0.022,-0.059,1.187,1.081
10.230,-0.022,-0.048,1.174,0.379
10.240,-0.012,-0.047,1.161,0.211
10.250,-0.008,-0.022,1.148,0.780
10.260,0.003,-0.020,1.136,1.248
10.270,0.016,-0.012,1.123,1.248
10.280,0.026,-0.009,1.112,1.081
10.290,0.007,-0.014,1.100,0.345
10.300,0.002,-0.048,1.087,-0.224
10.310,-0.001,-0.061,1.075,0.780
10.320,-0.016,-0.074,1.061,1.650
10.330,-0.034,-0.065,1.046,1.349
10.340,-0.028,-0.073,1.029,0.947
10.350,-0.030,-0.063,1.011,0.245
10.360,-0.025,-0.062,0.992,0.646
10.370,-0.030,-0.046,0.972,0.914
10.380,-0.025,-0.052,0.951,0.914
10.390,-0.047,-0.061,0.930,0.379
10.400,0.022,0.110,0.908,0.780
10.410,0.303,0.732,0.887,0.847
10.420,0.432,1.136,0.866,1.014
10.430,0.200,0.603,0.844,1.181
10.440,-0.034,0.027,0.823,-0.123
10.450,-0.084,-0.108,0.801,2.587
10.460,-0.036,-0.089,0.780,7.906
10.470,-0.035,-0.084,0.757,3.189
10.480,-0.034,-0.091,0.734,-3.836
10.490,-0.033,-0.073,0.709,-8.353
10.500,-0.026,-0.072,0.679,-6.814
10.510,-0.027,-0.060,0.642,4.326
10.520,-0.020,-0.062,0.596,9.545
10.530,-0.020,-0.045,0.543,4.627
10.540,-0.013,-0.048,0.487,-0.291
10.550,-0.012,-0.037,0.432,-0.960
10.560,-0.004,-0.035,0.377,-0.257
10.570,0.002,-0.018,0.321,0.011
10.580,0.022,-0.019,0.258,-0.190
10.590,0.013,-0.003,0.185,-1.662
10.600,0.013,0.003,0.101,-2.532
10.610,0.032,0.024,0.005,-1.930
10.620,0.048,0.037,-0.101,-0.391
10.630,0.062,0.070,-0.213,1.282
10.640,0.082,0.091,-0.338,1.583
10.650,0.093,0.130,-0.478,1.650
10.660,0.109,0.153,-0.632,0.646
10.670,0.110,0.177,-0.792,1.048
10.680,0.104,0.163,-0.949,1.449
10.690,0.070,0.129,-1.095,1.984
10.700,0.032,0.054,-1.226,1.817
10.710,-0.009,-0.001,-1.339,1.817
10.720,-0.032,-0.058,-1.434,1.315
10.730,-0.049,-0.080,-1.510,0.345
10.740,-0.053,-0.102,-1.565,-0.157
10.750,-0.057,-0.099,-1.603,-0.993
10.760,-0.055,-0.106,-1.623,-1.127
10.770,-0.058,-0.097,-1.626,-0.960
10.780,-0.054,-0.100,-1.612,0.512
10.790,-0.057,-0.088,-1.585,1.181
10.800,-0.052,-0.090,-1.546,1.315
10.810,-0.055,-0.081,-1.494,2.152
10.820,-0.052,-0.086,-1.427,4.426
10.830,-0.053,-0.076,-1.343,8.407
10.840,-0.048,-0.080,-1.242,7.939
10.850,-0.047,-0.066,-1.128,1.416
10.860,-0.041,-0.071,-1.006,-1.227
10.870,-0.042,-0.065,-0.882,0.546
10.880,-0.038,-0.070,-0.760,1.483
10.890,-0.040,-0.062,-0.645,-1.194
10.900,-0.036,-0.071,-0.539,-5.175
10.910,-0.037,-0.062,-0.442,-5.877
10.920,-0.034,-0.069,-0.352,-2.766
10.930,-0.038,-0.065,-0.268,0.613
10.940,-0.035,-0.071,-0.188,1.048
10.950,-0.036,-0.062,-0.114,-1.227
10.960,-0.032,-0.067,-0.046,-1.194
10.970,-0.035,-0.056,0.016,0.981
10.980,-0.033,-0.065,0.070,1.984
10.990,-0.033,-0.060,0.117,2.051
11.000,-0.029,-0.066,0.157,1.583
11.010,-0.033,-0.061,0.191,2.285
11.020,-0.031,-0.065,0.220,3.189
11.030,-0.028,-0.047,0.244,2.988
11.040,-0.014,-0.038,0.265,1.516
11.050,-0.014,-0.018,0.283,0.680
11.060,0.001,-0.019,0.298,0.813
11.070,0.014,-0.009,0.311,1.248
11.080,0.012,-0.015,0.323,0.479
11.090,-0.008,-0.033,0.334,0.479
11.100,-0.005,-0.065,0.343,-0.123
11.110,-0.013,-0.073,0.352,0.312
11.120,-0.032,-0.083,0.359,1.382
11.130,-0.045,-0.082,0.364,1.282
11.140,-0.039,-0.091,0.369,0.646
11.150,-0.040,-0.078,0.371,0.579
11.160,-0.038,-0.079,0.373,0.680
11.170,-0.040,-0.067,0.373,0.747
11.180,-0.048,-0.086,0.373,0.546
11.190,-0.053,-0.039,0.370,0.077
11.200,0.161,0.341,0.366,0.479
11.210,0.463,1.046,0.359,1.048
11.220,0.396,0.995,0.351,1.048
11.230,0.082,0.269,0.341,0.780
11.240,-0.083,-0.106,0.331,1.181
11.250,-0.064,-0.103,0.319,8.073
11.260,-0.042,-0.105,0.306,4.092
11.270,-0.053,-0.109,0.291,-5.275
11.280,-0.045,-0.107,0.276,-4.372
11.290,-0.043,-0.093,0.262,-0.960
11.300,-0.038,-0.093,0.249,3.022
11.310,-0.038,-0.075,0.236,3.490
11.320,-0.030,-0.071,0.225,1.917
11.330,-0.030,-0.060,0.215,1.951
11.340,-0.022,-0.061,0.207,3.022
11.350,-0.020,-0.045,0.200,1.148
11.360,-0.013,-0.049,0.193,-2.164
11.370,-0.010,-0.034,0.185,-2.733
11.380,0.001,-0.030,0.177,-1.963
11.390,0.007,-0.010,0.166,-1.963
11.400,0.019,-0.002,0.151,-1.662
11.410,0.028,0.021,0.123,-0.391
11.420,0.044,0.038,0.079,0.847
11.430,0.058,0.075,0.021,1.215
11.440,0.074,0.098,-0.045,0.813
11.450,0.086,0.136,-0.112,0.747
11.460,0.096,0.154,-0.177,1.416
11.470,0.094,0.168,-0.233,1.750
11.480,0.079,0.134,-0.280,1.717
11.490,0.040,0.079,-0.317,1.215
11.500,0.002,0.003,-0.348,1.583
11.510,-0.029,-0.047,-0.371,1.315
11.520,-0.045,-0.091,-0.390,0.579
11.530,-0.058,-0.104,-0.405,-0.023
11.540,-0.059,-0.119,-0.415,0.011
11.550,-0.061,-0.114,-0.422,-0.458
11.560,-0.058,-0.121,-0.424,-1.194
11.570,-0.058,-0.114,-0.423,-2.097
11.580,-0.055,-0.118,-0.418,0.077
11.590,-0.055,-0.110,-0.410,1.784
11.600,-0.051,-0.110,-0.402,2.018
11.610,-0.052,-0.098,-0.394,2.888
11.620,-0.049,-0.102,-0.386,3.456
11.630,-0.050,-0.094,-0.377,2.553
11.640,-0.045,-0.098,-0.367,3.992
11.650,-0.046,-0.085,-0.354,3.356
11.660,-0.042,-0.090,-0.340,1.650
11.670,-0.043,-0.085,-0.321,-0.090
11.680,-0.039,-0.090,-0.300,-2.064
11.690,-0.039,-0.080,-0.277,-3.201
11.700,-0.033,-0.084,-0.253,-3.067
11.710,-0.032,-0.076,-0.229,-2.164
11.720,-0.030,-0.082,-0.205,-1.395
11.730,-0.032,-0.075,-0.181,-1.729
11.740,-0.030,-0.083,-0.156,-1.361
11.750,-0.032,-0.077,-0.132,-0.056
11.760,-0.029,-0.082,-0.107,1.349
11.770,-0.031,-0.071,-0.084,1.449
11.780,-0.027,-0.074,-0.060,0.947
11.790,-0.028,-0.066,-0.038,1.014
11.800,-0.026,-0.071,-0.016,1.817
11.810,-0.028,-0.063,0.004,2.587
11.820,-0.026,-0.068,0.022,2.118
11.830,-0.029,-0.062,0.038,1.549
11.840,-0.025,-0.069,0.053,1.315
11.850,-0.025,-0.062,0.066,1.014
11.860,-0.022,-0.068,0.079,1.181
11.870,-0.018,-0.052,0.091,0.613
11.880,-0.006,-0.047,0.103,0.780
11.890,-0.002,-0.028,0.114,0.512
11.900,0.011,-0.021,0.124,-0.056
11.910,0.024,-0.010,0.134,-0.926
11.920,0.021,-0.019,0.142,-1.027
11.930,0.002,-0.038,0.150,-0.826
11.940,0.004,-0.066,0.157,-0.023
11.950,-0.006,-0.070,0.164,0.512
11.960,-0.028,-0.078,0.171,0.947
11.970,-0.037,-0.075,0.177,1.014
11.980,-0.032,-0.082,0.184,1.282
11.990,-0.032,-0.072,0.190,1.181
12.000,-0.029,-0.071,0.197,1.048
12.010,-0.030,-0.060,0.204,0.345
12.020,-0.045,-0.080,0.211,0.713
12.030,-0.038,-0.024,0.218,0.412
12.040,0.211,0.390,0.224,0.780
12.050,0.507,1.079,0.231,0.312
12.060,0.399,0.944,0.238,0.245
12.070,0.070,0.221,0.246,-0.826
12.080,-0.083,-0.113,0.254,2.319
12.090,-0.056,-0.098,0.263,7.203
12.100,-0.041,-0.111,0.271,0.144
12.110,-0.049,-0.115,0.280,-6.379
12.120,-0.043,-0.111,0.288,-3.067
12.130,-0.040,-0.099,0.296,0.880
12.140,-0.036,-0.094,0.304,2.486
12.150,-0.034,-0.077,0.311,2.821
12.160,-0.027,-0.074,0.318,1.650
12.170,-0.024,-0.060,0.325,2.720
12.180,-0.018,-0.058,0.333,3.390
12.190,-0.017,-0.045,0.342,0.713
12.200,-0.009,-0.043,0.354,-2.064
12.210,-0.004,-0.030,0.367,-1.763
12.220,0.004,-0.028,0.381,-0.960
12.230,0.010,-0.006,0.394,-1.194
12.240,0.021,0.005,0.406,-0.859
12.250,0.032,0.030,0.415,0.914
12.260,0.047,0.047,0.422,1.181
12.270,0.062,0.084,0.427,1.115
12.280,0.077,0.108,0.432,1.014
12.290,0.090,0.141,0.438,0.412
12.300,0.098,0.156,0.447,1.148
12.310,0.095,0.169,0.456,0.680
12.320,0.080,0.136,0.466,0.579
12.330,0.041,0.079,0.476,0.512
12.340,0.003,0.006,0.485,0.613
12.350,-0.027,-0.042,0.493,0.680
12.360,-0.044,-0.087,0.504,0.646
12.370,-0.052,-0.104,0.522,0.613
12.380,-0.054,-0.118,0.551,0.211
12.390,-0.058,-0.118,0.589,-0.391
12.400,-0.057,-0.121,0.634,-1.160
12.410,-0.054,-0.109,0.681,-1.328
12.420,-0.050,-0.109,0.729,0.646
12.430,-0.049,-0.098,0.774,1.750
12.440,-0.047,-0.102,0.816,1.583
12.450,-0.048,-0.094,0.856,3.055
12.460,-0.045,-0.094,0.891,3.356
12.470,-0.045,-0.086,0.923,2.720
12.480,-0.042,-0.087,0.953,3.891
12.490,-0.041,-0.081,0.982,2.252
12.500,-0.038,-0.088,1.006,1.449
12.510,-0.038,-0.083,1.027,-0.090
12.520,-0.034,-0.090,1.046,-2.231
12.530,-0.035,-0.084,1.064,-3.368
12.540,-0.033,-0.089,1.080,-2.198
12.550,-0.033,-0.086,1.095,-1.361
12.560,-0.030,-0.086,1.109,-1.729
12.570,-0.028,-0.079,1.122,-2.532
12.580,-0.027,-0.086,1.133,-1.361
12.590,-0.028,-0.079,1.142,0.546
12.600,-0.026,-0.082,1.148,1.717
12.610,-0.025,-0.075,1.153,1.148
12.620,-0.024,-0.077,1.155,0.178
12.630,-0.025,-0.068,1.158,0.847
12.640,-0.025,-0.072,1.159,2.185
12.650,-0.025,-0.066,1.159,3.155
12.660,-0.024,-0.070,1.157,3.022
12.670,-0.024,-0.061,1.150,2.386
12.680,-0.022,-0.060,1.141,1.181
12.690,-0.021,-0.056,1.129,0.947
12.700,-0.020,-0.062,1.116,0.981
12.710,-0.021,-0.051,1.105,0.579
12.720,-0.013,-0.045,1.095,0.646
12.730,-0.005,-0.028,1.087,0.379
12.740,0.003,-0.022,1.079,0.044
12.750,0.016,-0.011,1.072,-0.625
12.760,0.031,-0.000,1.064,-0.725
12.770,0.019,-0.002,1.055,-0.491
12.780,0.004,-0.041,1.046,-0.692
12.790,0.005,-0.053,1.035,0.211
12.800,-0.008,-0.064,1.024,1.750
12.810,-0.031,-0.064,1.011,2.018
12.820,-0.032,-0.070,0.998,1.583
12.830,-0.030,-0.062,0.984,0.880
12.840,-0.030,-0.065,0.971,1.115
12.850,-0.028,-0.052,0.960,0.813
12.860,-0.028,-0.055,0.955,0.379
12.870,-0.046,-0.066,0.956,0.245
12.880,-0.006,0.035,0.967,0.278
12.890,0.270,0.566,0.989,-0.056
12.900,0.484,1.119,1.018,0.245
12.910,0.292,0.740,1.053,0.011
12.920,0.003,0.083,1.092,-1.863
12.930,-0.088,-0.116,1.134,1.784
12.940,-0.041,-0.098,1.179,7.170
12.950,-0.030,-0.101,1.229,3.824
12.960,-0.037,-0.111,1.284,-2.800
12.970,-0.032,-0.093,1.346,-6.747
12.980,-0.026,-0.090,1.414,-5.074
12.990,-0.025,-0.078,1.482,2.821
13.000,-0.021,-0.073,1.545,6.567
13.010,-0.016,-0.064,1.601,3.022
13.020,-0.012,-0.061,1.650,1.382
13.030,-0.007,-0.046,1.693,1.851
13.040,-0.002,-0.042,1.733,0.880
13.050,0.002,-0.032,1.767,-1.093
13.060,0.010,-0.025,1.793,-1.528
13.070,0.017,-0.010,1.807,-1.428
13.080,0.026,-0.001,1.812,-1.595
13.090,0.037,0.019,1.812,-2.131
13.100,0.049,0.034,1.808,-1.562
13.110,0.063,0.065,1.803,-0.625
13.120,0.082,0.091,1.798,0.546
13.130,0.096,0.120,1.794,0.445
13.140,0.108,0.142,1.791,-0.257
13.150,0.116,0.173,1.788,-0.023
13.160,0.110,0.176,1.785,0.813
13.170,0.084,0.142,1.781,1.616
13.180,0.044,0.070,1.776,1.717
13.190,0.005,0.009,1.770,2.051
13.200,-0.022,-0.047,1.763,1.248
13.210,-0.039,-0.078,1.756,0.579
13.220,-0.048,-0.100,1.748,-0.558
13.230,-0.050,-0.105,1.744,-0.725
13.240,-0.050,-0.107,1.742,-1.896
13.250,-0.048,-0.102,1.742,-2.264
13.260,-0.046,-0.102,1.744,-1.127
13.270,-0.046,-0.095,1.746,0.044
13.280,-0.047,-0.092,1.747,1.014
13.290,-0.045,-0.081,1.745,1.683
13.300,-0.044,-0.079,1.735,3.122
13.310,-0.041,-0.075,1.716,6.133
13.320,-0.040,-0.077,1.688,5.898
13.330,-0.039,-0.077,1.653,0.780
13.340,-0.036,-0.079,1.615,-2.331
13.350,-0.033,-0.069,1.577,-1.361
13.360,-0.033,-0.070,1.538,-1.093
13.370,-0.031,-0.066,1.500,-2.499
13.380,-0.028,-0.068,1.465,-4.338
13.390,-0.027,-0.067,1.432,-5.141
13.400,-0.028,-0.070,1.404,-3.870
13.410,-0.029,-0.067,1.380,-1.261
13.420,-0.028,-0.070,1.360,-0.090
13.430,-0.027,-0.069,1.342,-0.357
13.440,-0.029,-0.076,1.327,-1.361
13.450,-0.029,-0.073,1.313,-0.458
13.460,-0.027,-0.077,1.300,1.115
13.470,-0.024,-0.074,1.288,2.687
13.480,-0.024,-0.076,1.277,3.022
13.490,-0.024,-0.075,1.265,3.390
13.500,-0.024,-0.077,1.254,2.787
13.510,-0.023,-0.074,1.243,1.717
13.520,-0.021,-0.070,1.232,0.479
13.530,-0.015,-0.057,1.223,0.546
13.540,-0.007,-0.049,1.216,0.981
13.550,0.001,-0.023,1.211,0.914
13.560,0.015,-0.020,1.209,0.245
13.570,0.028,-0.008,1.208,0.044
13.580,0.015,-0.016,1.210,-0.424
13.590,0.003,-0.040,1.213,-0.491
13.600,0.005,-0.057,1.220,-0.123
13.610,-0.009,-0.066,1.229,0.747
13.620,-0.030,-0.067,1.241,0.747
13.630,-0.032,-0.063,1.253,0.345
13.640,-0.031,-0.061,1.265,-0.224
13.650,-0.029,-0.047,1.278,-0.357
13.660,-0.028,-0.041,1.291,-0.257
13.670,-0.026,-0.037,1.302,1.048
13.680,-0.044,-0.058,1.312,0.813
13.690,-0.013,0.055,1.318,1.115
13.700,0.242,0.591,1.321,1.248
13.710,0.438,1.144,1.320,1.382
13.720,0.257,0.738,1.314,2.051
13.730,-0.004,0.096,1.302,1.516
13.740,-0.092,-0.110,1.284,2.620
13.750,-0.048,-0.093,1.261,8.073
13.760,-0.032,-0.090,1.234,4.962
13.770,-0.036,-0.094,1.205,-3.134
13.780,-0.033,-0.084,1.176,-8.018
13.790,-0.027,-0.072,1.144,-8.052
13.800,-0.026,-0.070,1.109,2.118
13.810,-0.022,-0.063,1.072,8.541
13.820,-0.018,-0.058,1.033,5.463
13.830,-0.013,-0.047,0.995,0.379
13.840,-0.013,-0.042,0.957,-1.027
13.850,-0.009,-0.033,0.919,-0.792
13.860,-0.002,-0.025,0.879,-0.458
13.870,0.004,-0.013,0.838,-0.725
13.880,0.009,-0.008,0.793,-1.495
13.890,0.020,0.009,0.746,-2.867
13.900,0.032,0.027,0.697,-3.201
13.910,0.045,0.049,0.647,-2.699
13.920,0.057,0.070,0.592,-0.491
13.930,0.076,0.098,0.530,0.780
13.940,0.090,0.125,0.458,0.947
13.950,0.102,0.152,0.380,0.111
13.960,0.109,0.170,0.299,0.613
13.970,0.104,0.172,0.217,1.382
13.980,0.077,0.133,0.136,2.319
13.990,0.038,0.073,0.055,2.386
14.000,-0.003,0.004,-0.030,2.352
14.010,-0.029,-0.041,-0.122,1.349
14.020,-0.045,-0.075,-0.218,1.014
14.030,-0.054,-0.095,-0.316,0.111
14.040,-0.056,-0.102,-0.416,-0.592
14.050,-0.054,-0.099,-0.523,-1.227
14.060,-0.054,-0.099,-0.637,-1.361
14.070,-0.054,-0.094,-0.761,-0.324
14.080,-0.055,-0.091,-0.896,0.613
14.090,-0.053,-0.089,-1.041,1.215
14.100,-0.051,-0.087,-1.185,1.984
14.110,-0.049,-0.079,-1.321,3.122
14.120,-0.050,-0.073,-1.440,7.270
14.130,-0.046,-0.070,-1.539,8.675
14.140,-0.046,-0.068,-1.617,3.189
14.150,-0.044,-0.063,-1.674,-1.796
14.160,-0.042,-0.058,-1.712,-1.261
14.170,-0.036,-0.052,-1.734,0.947
14.180,-0.034,-0.054,-1.740,-0.123
14.190,-0.033,-0.056,-1.734,-3.402
14.200,-0.033,-0.055,-1.717,-5.643
14.210,-0.033,-0.053,-1.693,-3.870
14.220,-0.033,-0.053,-1.663,0.345
14.230,-0.031,-0.052,-1.630,1.549
14.240,-0.033,-0.056,-1.595,-1.261
14.250,-0.032,-0.053,-1.558,-2.432
14.260,-0.032,-0.049,-1.520,0.713
14.270,-0.030,-0.049,-1.481,3.289
14.280,-0.030,-0.049,-1.439,3.055
14.290,-0.027,-0.048,-1.391,1.516
14.300,-0.029,-0.050,-1.337,1.148
14.310,-0.028,-0.047,-1.277,2.553
14.320,-0.029,-0.043,-1.211,3.624
14.330,-0.022,-0.030,-1.141,3.088
14.340,-0.015,-0.017,-1.067,1.549
14.350,-0.008,-0.002,-0.991,0.880
14.360,0.002,0.003,-0.911,0.747
14.370,0.019,0.004,-0.827,1.014
14.380,0.016,0.008,-0.736,0.479
14.390,-0.001,-0.014,-0.642,0.077
14.400,-0.004,-0.037,-0.549,0.044
14.410,-0.005,-0.048,-0.460,0.947
14.420,-0.029,-0.051,-0.375,2.085
14.430,-0.041,-0.055,-0.294,1.784
14.440,-0.040,-0.058,-0.217,0.981
14.450,-0.037,-0.054,-0.144,0.546
14.460,-0.038,-0.051,-0.075,1.282
14.470,-0.038,-0.046,-0.010,1.215
14.480,-0.049,-0.057,0.054,0.613
14.490,-0.054,-0.030,0.118,0.144
14.500,0.138,0.327,0.180,0.379
14.510,0.453,1.028,0.238,0.747
14.520,0.408,1.052,0.292,1.349
14.530,0.102,0.321,0.340,0.278
14.540,-0.080,-0.082,0.381,1.683
14.550,-0.066,-0.101,0.417,7.638
14.560,-0.044,-0.089,0.447,3.992
14.570,-0.048,-0.102,0.473,-3.803
14.580,-0.047,-0.094,0.493,-2.934
14.590,-0.041,-0.086,0.508,-0.826
14.600,-0.039,-0.077,0.518,1.984
14.610,-0.033,-0.070,0.525,3.423
14.620,-0.032,-0.064,0.531,2.419
14.630,-0.026,-0.055,0.537,2.352
14.640,-0.024,-0.047,0.542,3.222
14.650,-0.019,-0.040,0.546,0.747
14.660,-0.015,-0.031,0.546,-2.097
14.670,-0.007,-0.024,0.541,-2.666
14.680,-0.002,-0.015,0.530,-1.127
14.690,0.007,-0.003,0.510,-1.428
14.700,0.014,0.013,0.479,-1.629
14.710,0.028,0.029,0.441,-0.893
14.720,0.041,0.050,0.399,0.880
14.730,0.057,0.077,0.356,1.683
14.740,0.069,0.108,0.315,1.215
14.750,0.085,0.135,0.277,0.713
14.760,0.094,0.160,0.245,1.583
14.770,0.095,0.170,0.215,1.683
14.780,0.079,0.150,0.189,1.483
14.790,0.046,0.092,0.165,1.282
14.800,0.003,0.022,0.141,1.483
14.810,-0.026,-0.031,0.116,1.516
14.820,-0.046,-0.071,0.088,0.412
14.830,-0.057,-0.096,0.059,0.111
14.840,-0.064,-0.104,0.030,-0.725
14.850,-0.062,-0.110,0.001,-0.859
14.860,-0.061,-0.109,-0.027,-0.893
14.870,-0.059,-0.103,-0.055,-1.562
14.880,-0.060,-0.096,-0.085,0.077
14.890,-0.057,-0.095,-0.117,1.616
14.900,-0.057,-0.089,-0.151,1.683
14.910,-0.054,-0.085,-0.183,2.620
14.920,-0.054,-0.078,-0.213,3.289
14.930,-0.050,-0.073,-0.240,2.854
14.940,-0.050,-0.073,-0.261,3.490
14.950,-0.046,-0.077,-0.275,3.289
14.960,-0.048,-0.072,-0.283,2.152
14.970,-0.044,-0.073,-0.285,0.747
14.980,-0.043,-0.073,-0.282,-2.064
14.990,-0.040,-0.072,-0.274,-3.937
15.000,-0.041,-0.070,-0.262,-4.171
15.010,-0.038,-0.072,-0.248,-2.666
15.020,-0.038,-0.070,-0.233,-1.830
15.030,-0.038,-0.071,-0.216,-1.930
15.040,-0.039,-0.071,-0.198,-1.696
15.050,-0.034,-0.074,-0.181,-0.458
15.060,-0.036,-0.072,-0.164,1.416
15.070,-0.034,-0.074,-0.150,1.248
15.080,-0.036,-0.076,-0.137,1.014
15.090,-0.032,-0.074,-0.126,1.081
15.100,-0.033,-0.070,-0.116,1.750
15.110,-0.031,-0.073,-0.106,2.620
15.120,-0.033,-0.071,-0.096,2.888
15.130,-0.030,-0.071,-0.086,2.486
15.140,-0.031,-0.068,-0.076,1.248
15.150,-0.031,-0.073,-0.065,0.579
15.160,-0.030,-0.073,-0.053,0.278
15.170,-0.024,-0.071,-0.040,1.048
15.180,-0.017,-0.053,-0.026,0.713
15.190,-0.008,-0.037,-0.012,-0.023
15.200,-0.004,-0.023,0.002,-0.324
15.210,0.014,-0.022,0.016,-0.592
15.220,0.022,-0.013,0.030,-0.926
15.230,0.011,-0.024,0.043,-0.558
15.240,-0.004,-0.050,0.056,-0.692
15.250,0.000,-0.071,0.068,-0.023
15.260,-0.018,-0.077,0.079,0.947
15.270,-0.037,-0.080,0.088,1.616
15.280,-0.040,-0.081,0.097,0.947
15.290,-0.033,-0.082,0.106,0.813
15.300,-0.036,-0.077,0.114,1.148
15.310,-0.033,-0.069,0.123,0.914
15.320,-0.035,-0.065,0.132,0.445
15.330,-0.057,-0.081,0.141,0.780
15.340,0.015,0.073,0.150,1.181
15.350,0.342,0.666,0.159,0.445
15.360,0.518,1.168,0.167,0.245
15.370,0.274,0.680,0.175,-0.324
15.380,-0.021,0.032,0.183,-0.926
15.390,-0.084,-0.131,0.190,5.564
15.400,-0.050,-0.101,0.197,5.698
15.410,-0.050,-0.126,0.204,-3.903
15.420,-0.055,-0.121,0.211,-5.108
15.430,-0.047,-0.113,0.219,-0.558
15.440,-0.045,-0.099,0.227,1.616
15.450,-0.039,-0.091,0.235,2.085
15.460,-0.038,-0.082,0.243,1.951
15.470,-0.031,-0.076,0.252,2.620
15.480,-0.030,-0.065,0.261,3.590
15.490,-0.022,-0.058,0.272,2.553
15.500,-0.020,-0.044,0.282,-1.361
15.510,-0.012,-0.039,0.292,-2.632
15.520,-0.008,-0.029,0.299,-1.763
15.530,-0.000,-0.022,0.303,-1.461
15.540,0.004,-0.009,0.305,-1.227
15.550,0.017,0.005,0.304,-0.224
15.560,0.029,0.028,0.300,1.215
15.570,0.046,0.051,0.294,1.315
15.580,0.058,0.085,0.289,0.546
15.590,0.076,0.111,0.284,0.512
15.600,0.087,0.143,0.280,1.048
15.610,0.095,0.164,0.276,1.148
15.620,0.086,0.165,0.272,0.981
15.630,0.065,0.119,0.266,0.880
15.640,0.024,0.056,0.256,1.750
15.650,-0.009,-0.013,0.239,0.880
15.660,-0.034,-0.059,0.215,0.880
15.670,-0.049,-0.097,0.183,0.813
15.680,-0.059,-0.111,0.145,0.412
15.690,-0.057,-0.118,0.106,-0.257
15.700,-0.059,-0.116,0.070,-0.424
15.710,-0.058,-0.119,0.041,-1.060
15.720,-0.056,-0.116,0.023,-0.458
15.730,-0.053,-0.108,0.016,1.315
15.740,-0.055,-0.100,0.020,1.382
15.750,-0.049,-0.101,0.034,2.152
15.760,-0.049,-0.091,0.056,2.252
15.770,-0.046,-0.092,0.085,1.583
15.780,-0.047,-0.083,0.121,3.624
15.790,-0.043,-0.082,0.162,3.992
15.800,-0.045,-0.079,0.209,1.851
15.810,-0.039,-0.080,0.260,0.680
15.820,-0.041,-0.074,0.313,-0.859
15.830,-0.036,-0.078,0.368,-2.599
15.840,-0.036,-0.074,0.424,-3.268
15.850,-0.033,-0.076,0.480,-3.000
15.860,-0.035,-0.070,0.535,-2.131
15.870,-0.031,-0.072,0.589,-1.328
15.880,-0.033,-0.067,0.640,-1.027
15.890,-0.028,-0.070,0.688,-0.491
15.900,-0.032,-0.066,0.732,0.613
15.910,-0.029,-0.071,0.773,1.081
15.920,-0.029,-0.070,0.809,0.914
15.930,-0.027,-0.073,0.843,0.278
15.940,-0.029,-0.069,0.873,1.483
15.950,-0.025,-0.071,0.902,2.821
15.960,-0.027,-0.064,0.929,2.520
15.970,-0.024,-0.066,0.957,2.252
15.980,-0.026,-0.063,0.985,1.984
15.990,-0.022,-0.066,1.014,1.248
16.000,-0.022,-0.062,1.041,0.880
16.010,-0.017,-0.062,1.066,0.479
16.020,-0.019,-0.056,1.087,0.379
16.030,-0.016,-0.060,1.104,0.445
16.040,-0.018,-0.051,1.117,-0.090
16.050,-0.006,-0.045,1.129,0.044
16.060,0.000,-0.028,1.140,-0.157
16.070,0.011,-0.017,1.151,0.245
16.080,0.024,-0.008,1.160,0.011
16.090,0.035,-0.006,1.167,-0.291
16.100,0.016,-0.016,1.171,-0.224
16.110,0.010,-0.047,1.172,0.713
16.120,0.008,-0.059,1.172,1.650
16.130,-0.009,-0.073,1.169,2.219
16.140,-0.028,-0.071,1.164,2.486
16.150,-0.021,-0.075,1.158,1.683
16.160,-0.021,-0.066,1.150,1.382
16.170,-0.018,-0.064,1.141,0.914
16.180,-0.021,-0.052,1.132,0.512
16.190,-0.020,-0.057,1.123,-0.023
16.200,-0.044,-0.058,1.113,0.680
16.210,0.062,0.148,1.103,0.144
16.220,0.381,0.800,1.092,0.379
16.230,0.483,1.128,1.080,0.512
16.240,0.209,0.521,1.066,0.345
16.250,-0.037,-0.026,1.053,-0.324
16.260,-0.074,-0.122,1.041,4.727
16.270,-0.027,-0.092,1.033,7.203
16.280,-0.032,-0.100,1.032,0.579
16.290,-0.030,-0.105,1.040,-3.870
16.300,-0.026,-0.091,1.058,-4.539
16.310,-0.021,-0.087,1.084,-0.525
16.320,-0.020,-0.073,1.118,4.761
16.330,-0.015,-0.067,1.158,4.059
16.340,-0.014,-0.054,1.201,2.185
16.350,-0.006,-0.050,1.246,2.085
16.360,-0.008,-0.039,1.290,1.917
16.370,0.000,-0.038,1.331,-0.357
16.380,0.005,-0.021,1.370,-1.863
16.390,0.013,-0.014,1.402,-1.060
16.400,0.019,-0.005,1.431,-0.993
16.410,0.032,0.002,1.456,-1.461
16.420,0.038,0.028,1.478,-1.595
16.430,0.056,0.046,1.500,-1.027
16.440,0.066,0.076,1.523,0.379
16.450,0.087,0.100,1.550,0.379
16.460,0.100,0.132,1.582,0.144
16.470,0.112,0.156,1.618,-0.190
16.480,0.113,0.182,1.657,-0.123
16.490,0.111,0.173,1.697,1.081
16.500,0.080,0.135,1.735,1.784
16.510,0.040,0.063,1.771,1.984
16.520,0.002,0.003,1.802,1.984
16.530,-0.020,-0.049,1.831,1.014
16.540,-0.037,-0.072,1.857,0.713
16.550,-0.040,-0.097,1.879,-0.123
16.560,-0.044,-0.100,1.898,-1.127
16.570,-0.041,-0.103,1.911,-1.997
16.580,-0.044,-0.094,1.920,-2.833
16.590,-0.040,-0.094,1.925,-0.993
16.600,-0.042,-0.084,1.928,1.215
16.610,-0.036,-0.083,1.927,2.185
16.620,-0.038,-0.078,1.926,3.189
16.630,-0.034,-0.081,1.921,3.824
16.640,-0.033,-0.072,1.911,5.731
16.650,-0.027,-0.075,1.892,4.594
16.660,-0.028,-0.071,1.866,-0.792
16.670,-0.022,-0.078,1.839,-1.896
16.680,-0.022,-0.066,1.811,-1.093
16.690,-0.019,-0.070,1.784,-1.060
16.700,-0.020,-0.067,1.758,-3.335
16.710,-0.016,-0.069,1.732,-4.071
16.720,-0.020,-0.064,1.706,-4.639
16.730,-0.017,-0.071,1.680,-3.402
16.740,-0.018,-0.063,1.655,-1.027
16.750,-0.015,-0.067,1.629,0.278
16.760,-0.018,-0.061,1.604,-0.357
16.770,-0.015,-0.068,1.582,-1.093
16.780,-0.019,-0.064,1.561,-0.257
16.790,-0.014,-0.067,1.541,0.847
16.800,-0.015,-0.061,1.523,2.018
16.810,-0.013,-0.068,1.507,2.587
16.820,-0.016,-0.062,1.492,2.386
16.830,-0.010,-0.064,1.479,1.516
16.840,-0.013,-0.055,1.469,0.914
16.850,-0.004,-0.054,1.463,0.713
16.860,0.002,-0.033,1.460,0.780
16.870,0.009,-0.024,1.464,0.813
16.880,0.020,-0.016,1.475,1.349
16.890,0.036,-0.013,1.496,0.646
16.900,0.019,-0.011,1.527,0.445
16.910,0.010,-0.040,1.562,-0.056
16.920,0.009,-0.056,1.603,-0.023
16.930,-0.001,-0.075,1.647,0.412
16.940,-0.025,-0.068,1.690,0.479
16.950,-0.021,-0.075,1.733,0.144
16.960,-0.022,-0.065,1.774,-0.558
16.970,-0.021,-0.067,1.812,-0.826
16.980,-0.022,-0.053,1.846,-0.424
16.990,-0.015,-0.056,1.875,0.747
17.000,-0.034,-0.071,1.900,0.613
17.010,-0.003,0.035,1.921,-0.324
17.020,0.244,0.590,1.937,-1.027
17.030,0.436,1.129,1.949,-0.592
17.040,0.251,0.724,1.956,0.546
17.050,0.002,0.083,1.959,-0.324
17.060,-0.083,-0.112,1.960,0.445
17.070,-0.033,-0.108,1.959,6.434
17.080,-0.022,-0.089,1.954,5.095
17.090,-0.024,-0.102,1.949,-1.495
17.100,-0.023,-0.089,1.942,-6.279
17.110,-0.017,-0.084,1.935,-8.420
17.120,-0.016,-0.067,1.927,-0.357
17.130,-0.008,-0.065,1.918,7.337
17.140,-0.008,-0.052,1.907,5.095
17.150,-0.001,-0.050,1.893,1.382
17.160,-0.000,-0.034,1.876,0.178
17.170,0.007,-0.032,1.857,-1.127
17.180,0.009,-0.018,1.834,-1.461
17.190,0.019,-0.015,1.808,-1.093
17.200,0.023,0.004,1.779,-1.294
17.210,0.035,0.012,1.747,-2.231
17.220,0.044,0.034,1.712,-2.097
17.230,0.060,0.049,1.675,-1.863
17.240,0.070,0.083,1.638,-0.759
17.250,0.089,0.105,1.600,0.579
17.260,0.100,0.142,1.561,1.784
17.270,0.117,0.160,1.519,1.549
17.280,0.118,0.188,1.476,1.516
17.290,0.114,0.185,1.430,2.620
17.300,0.086,0.157,1.382,2.285
17.310,0.048,0.087,1.334,2.352
17.320,0.004,0.025,1.285,1.382
17.330,-0.020,-0.031,1.238,0.579
17.340,-0.041,-0.059,1.191,0.211
17.350,-0.045,-0.085,1.144,-0.090
17.360,-0.050,-0.084,1.093,-1.629
17.370,-0.045,-0.093,1.036,-2.532
17.380,-0.049,-0.084,0.971,-2.465
17.390,-0.046,-0.087,0.899,-0.491
17.400,-0.050,-0.076,0.818,0.111
17.410,-0.047,-0.076,0.729,0.613
17.420,-0.049,-0.065,0.635,1.616
17.430,-0.045,-0.070,0.539,3.055
17.440,-0.045,-0.061,0.445,8.073
17.450,-0.040,-0.069,0.358,8.541
17.460,-0.044,-0.062,0.281,2.219
17.470,-0.037,-0.062,0.216,-1.896
17.480,-0.038,-0.051,0.162,-0.926
17.490,-0.032,-0.055,0.118,0.847
17.500,-0.034,-0.048,0.083,0.011
17.510,-0.029,-0.059,0.056,-3.335
17.520,-0.031,-0.049,0.034,-5.442
17.530,-0.026,-0.054,0.016,-4.037
17.540,-0.029,-0.053,0.002,-0.592
17.550,-0.025,-0.057,-0.010,0.077
17.560,-0.030,-0.046,-0.020,-1.194
17.570,-0.026,-0.053,-0.030,-0.893
17.580,-0.031,-0.049,-0.043,1.282
17.590,-0.028,-0.054,-0.058,3.390
17.600,-0.030,-0.047,-0.078,4.259
17.610,-0.025,-0.052,-0.101,2.252
17.620,-0.025,-0.035,-0.122,1.282
17.630,-0.012,-0.026,-0.139,1.616
17.640,-0.011,-0.002,-0.150,2.453
17.650,0.004,-0.004,-0.156,2.453
17.660,0.015,0.003,-0.156,1.784
17.670,0.017,0.006,-0.151,0.680
17.680,-0.003,-0.004,-0.143,0.412
17.690,-0.003,-0.044,-0.133,0.813
17.700,-0.009,-0.049,-0.123,1.784
17.710,-0.027,-0.056,-0.111,2.018
17.720,-0.044,-0.055,-0.097,1.683
17.730,-0.038,-0.065,-0.083,1.650
17.740,-0.039,-0.053,-0.068,1.115
17.750,-0.035,-0.056,-0.054,0.680
17.760,-0.039,-0.045,-0.042,0.479
17.770,-0.043,-0.059,-0.035,0.211
17.780,-0.061,-0.032,-0.037,0.412
17.790,0.106,0.291,-0.047,0.847
17.800,0.405,0.995,-0.068,0.312
17.810,0.393,1.072,-0.095,0.947
17.820,0.102,0.365,-0.128,0.780
17.830,-0.078,-0.070,-0.169,0.579
17.840,-0.074,-0.101,-0.216,6.802
17.850,-0.039,-0.088,-0.269,6.032
17.860,-0.050,-0.092,-0.325,-1.160
17.870,-0.046,-0.090,-0.384,-3.468
17.880,-0.043,-0.077,-0.447,-3.435
17.890,-0.035,-0.076,-0.511,2.185
17.900,-0.035,-0.058,-0.574,5.898
17.910,-0.031,-0.055,-0.633,2.955
17.920,-0.032,-0.041,-0.687,0.914
17.930,-0.023,-0.040,-0.736,1.248
17.940,-0.022,-0.025,-0.782,0.646
17.950,-0.014,-0.022,-0.827,-0.692
17.960,-0.012,-0.005,-0.878,-1.428
17.970,-0.003,-0.001,-0.942,-1.696
17.980,0.003,0.017,-1.021,-2.164
17.990,0.017,0.025,-1.109,-1.963
18.000,0.026,0.051,-1.193,-0.993
18.010,0.042,0.064,-1.260,0.144
18.020,0.053,0.097,-1.304,0.780
18.030,0.072,0.118,-1.321,0.512
18.040,0.082,0.153,-1.309,0.981
18.050,0.094,0.170,-1.273,1.181
18.060,0.093,0.185,-1.218,1.784
18.070,0.080,0.155,-1.151,2.085
18.080,0.042,0.105,-1.077,2.620
18.090,0.008,0.029,-1.001,2.921
18.100,-0.025,-0.021,-0.925,2.085
18.110,-0.042,-0.072,-0.851,1.650
18.120,-0.056,-0.089,-0.781,0.512
18.130,-0.057,-0.107,-0.716,0.379
18.140,-0.061,-0.103,-0.658,-1.160
18.150,-0.057,-0.110,-0.605,-1.729
18.160,-0.058,-0.100,-0.559,-2.131
18.170,-0.053,-0.103,-0.519,0.178
18.180,-0.056,-0.092,-0.486,1.549
18.190,-0.052,-0.095,-0.462,1.516
18.200,-0.055,-0.084,-0.447,2.921
18.210,-0.050,-0.087,-0.440,4.025
18.220,-0.049,-0.075,-0.440,4.527
18.230,-0.046,-0.080,-0.442,3.691
18.240,-0.050,-0.072,-0.445,2.754
18.250,-0.044,-0.082,-0.446,2.486
18.260,-0.045,-0.074,-0.445,1.683
18.270,-0.041,-0.080,-0.440,-0.926
18.280,-0.042,-0.068,-0.433,-3.703
18.290,-0.037,-0.076,-0.425,-4.472
18.300,-0.039,-0.071,-0.415,-2.699
18.310,-0.035,-0.080,-0.404,-0.993
18.320,-0.039,-0.072,-0.391,-0.893
18.330,-0.036,-0.078,-0.378,-1.261
18.340,-0.040,-0.071,-0.364,-0.157
18.350,-0.034,-0.078,-0.349,1.282
18.360,-0.036,-0.072,-0.333,1.349
18.370,-0.033,-0.082,-0.315,0.747
18.380,-0.037,-0.072,-0.297,1.215
18.390,-0.034,-0.078,-0.277,1.984
18.400,-0.034,-0.071,-0.257,3.088
18.410,-0.029,-0.075,-0.237,2.955
18.420,-0.028,-0.057,-0.219,1.984
18.430,-0.015,-0.046,-0.202,1.750
18.440,-0.015,-0.023,-0.187,1.248
18.450,-0.001,-0.027,-0.173,0.914
18.460,0.010,-0.024,-0.160,1.282
18.470,0.017,-0.023,-0.148,0.914
18.480,-0.001,-0.029,-0.135,-0.056
18.490,-0.004,-0.066,-0.123,-0.792
18.500,-0.010,-0.075,-0.111,-0.257
18.510,-0.028,-0.087,-0.099,0.780
18.520,-0.046,-0.085,-0.088,1.014
18.530,-0.042,-0.093,-0.079,0.914
18.540,-0.043,-0.082,-0.071,0.546
18.550,-0.038,-0.086,-0.063,0.981
18.560,-0.039,-0.071,-0.056,0.345
18.570,-0.040,-0.082,-0.049,-0.023
18.580,-0.066,-0.075,-0.042,0.011
18.590,0.070,0.169,-0.037,0.512
18.600,0.401,0.855,-0.032,0.579
18.610,0.470,1.126,-0.029,0.914
18.620,0.174,0.485,-0.027,0.646
18.630,-0.060,-0.057,-0.025,1.014
18.640,-0.080,-0.123,-0.022,6.935
18.650,-0.045,-0.109,-0.019,4.226
18.660,-0.053,-0.123,-0.014,-4.506
18.670,-0.048,-0.124,-0.009,-3.836
18.680,-0.045,-0.107,-0.004,0.178
18.690,-0.039,-0.104,0.001,2.319
18.700,-0.040,-0.090,0.006,2.787
18.710,-0.032,-0.092,0.011,1.851
18.720,-0.032,-0.072,0.017,2.252
18.730,-0.024,-0.069,0.023,3.122
18.740,-0.024,-0.056,0.029,1.248
18.750,-0.017,-0.053,0.035,-2.566
18.760,-0.014,-0.034,0.040,-3.335
18.770,-0.003,-0.030,0.040,-2.231
18.780,0.001,-0.010,0.026,-1.830
18.790,0.011,-0.004,-0.017,-1.662
18.800,0.020,0.020,-0.093,-0.960
18.810,0.036,0.034,-0.197,0.445
18.820,0.048,0.067,-0.316,1.282
18.830,0.067,0.088,-0.436,1.248
18.840,0.078,0.125,-0.547,0.747
18.850,0.092,0.147,-0.643,1.215
18.860,0.092,0.171,-0.722,1.750
18.870,0.085,0.151,-0.783,1.516
18.880,0.053,0.110,-0.832,1.817
18.890,0.018,0.037,-0.871,0.579
18.900,-0.017,-0.018,-0.905,1.181
18.910,-0.036,-0.069,-0.940,0.680
18.920,-0.052,-0.086,-0.978,0.379
18.930,-0.054,-0.107,-1.016,-0.391
18.940,-0.058,-0.104,-1.052,-1.261
18.950,-0.055,-0.108,-1.081,-1.763
18.960,-0.057,-0.097,-1.104,-1.428
18.970,-0.051,-0.101,-1.119,0.512
18.980,-0.052,-0.088,-1.132,1.583
18.990,-0.046,-0.088,-1.147,1.917
19.000,-0.048,-0.075,-1.161,3.022
19.010,-0.043,-0.076,-1.174,1.917
19.020,-0.045,-0.065,-1.182,2.754
19.030,-0.043,-0.072,-1.185,4.727
19.040,-0.045,-0.062,-1.181,3.490
19.050,-0.038,-0.064,-1.169,1.315
19.060,-0.038,-0.056,-1.151,0.111
19.070,-0.034,-0.062,-1.129,-1.930
19.080,-0.036,-0.054,-1.101,-3.502
19.090,-0.033,-0.062,-1.071,-2.599
19.100,-0.034,-0.053,-1.038,-2.432
19.110,-0.030,-0.060,-1.001,-1.328
19.120,-0.032,-0.054,-0.962,-1.060
19.130,-0.028,-0.059,-0.920,-1.127
19.140,-0.030,-0.055,-0.876,0.011
19.150,-0.028,-0.064,-0.831,0.579
19.160,-0.031,-0.057,-0.785,1.115
19.170,-0.027,-0.062,-0.741,1.382
19.180,-0.029,-0.051,-0.698,0.880
19.190,-0.025,-0.057,-0.655,1.650
19.200,-0.029,-0.050,-0.612,2.252
19.210,-0.026,-0.059,-0.567,2.185
19.220,-0.028,-0.050,-0.520,1.315
19.230,-0.024,-0.053,-0.472,1.616
19.240,-0.025,-0.044,-0.422,0.947
19.250,-0.017,-0.044,-0.372,0.813
19.260,-0.011,-0.019,-0.324,1.115
19.270,-0.005,-0.007,-0.277,1.115
19.280,0.001,0.008,-0.231,0.847
19.290,0.022,0.001,-0.186,0.178
19.300,0.025,0.016,-0.140,-0.525
19.310,0.011,-0.005,-0.092,-0.826
19.320,0.001,-0.029,-0.043,-0.224
19.330,0.004,-0.053,0.009,0.546
19.340,-0.018,-0.051,0.063,1.048
19.350,-0.034,-0.060,0.120,1.215
19.360,-0.036,-0.051,0.180,0.914
19.370,-0.029,-0.056,0.242,1.081
19.380,-0.033,-0.041,0.306,1.315
19.390,-0.029,-0.036,0.370,0.813
19.400,-0.037,-0.032,0.434,0.613
19.410,-0.058,-0.046,0.495,0.412
19.420,0.051,0.170,0.551,0.880
19.430,0.391,0.806,0.602,0.646
19.440,0.503,1.193,0.649,0.613
19.450,0.227,0.608,0.696,0.278
19.460,-0.041,0.030,0.744,0.245
19.470,-0.076,-0.086,0.793,6.701
19.480,-0.040,-0.051,0.843,5.028
19.490,-0.041,-0.080,0.894,-4.941
19.500,-0.045,-0.069,0.944,-4.941
19.510,-0.039,-0.069,0.994,-0.859
19.520,-0.037,-0.056,1.041,2.687
19.530,-0.028,-0.054,1.086,3.557
19.540,-0.028,-0.038,1.127,2.285
19.550,-0.021,-0.036,1.167,2.185
19.560,-0.018,-0.021,1.206,3.356
19.570,-0.013,-0.020,1.244,2.419
19.580,-0.013,-0.005,1.281,-1.696
19.590,-0.004,-0.006,1.315,-2.532
19.600,0.002,0.010,1.344,-1.863
19.610,0.012,0.016,1.366,-1.261
19.620,0.017,0.037,1.382,-1.027
19.630,0.031,0.043,1.394,-0.357
19.640,0.042,0.071,1.403,1.483
19.650,0.059,0.092,1.408,1.616
19.660,0.072,0.126,1.411,1.115
19.670,0.088,0.148,1.415,0.011
19.680,0.096,0.185,1.422,0.211
19.690,0.104,0.198,1.430,1.215
19.700,0.093,0.195,1.440,1.282
19.710,0.068,0.143,1.449,1.650
19.720,0.027,0.081,1.459,1.148
19.730,-0.005,0.010,1.466,1.416
19.740,-0.030,-0.029,1.470,0.947
19.750,-0.040,-0.067,1.473,0.379
19.760,-0.048,-0.077,1.473,-0.190
19.770,-0.047,-0.088,1.471,-0.759
19.780,-0.047,-0.080,1.467,-1.261
19.790,-0.045,-0.083,1.460,-1.896
19.800,-0.047,-0.070,1.453,-0.056
19.810,-0.040,-0.070,1.445,1.181
19.820,-0.042,-0.060,1.438,1.683
19.830,-0.039,-0.066,1.430,2.888
19.840,-0.041,-0.057,1.420,3.925
19.850,-0.037,-0.058,1.406,3.088
19.860,-0.037,-0.046,1.388,2.419
19.870,-0.033,-0.053,1.367,1.516
19.880,-0.034,-0.047,1.345,0.613
19.890,-0.029,-0.052,1.324,0.278
19.900,-0.029,-0.046,1.303,-0.859
19.910,-0.027,-0.050,1.283,-2.632
19.920,-0.029,-0.040,1.265,-3.034
19.930,-0.025,-0.047,1.251,-2.800
19.940,-0.025,-0.042,1.238,-1.896
19.950,-0.021,-0.047,1.225,-1.328
19.960,-0.024,-0.038,1.211,-1.127
19.970,-0.021,-0.045,1.196,0.144
19.980,-0.022,-0.037,1.180,0.546
19.990,-0.018,-0.046,1.165,0.981
20.000,-0.019,-0.038,1.150,0.245
20.010,-0.018,-0.044,1.136,0.847
20.020,-0.019,-0.034,1.122,1.917
20.030,-0.017,-0.040,1.107,3.055
20.040,-0.018,-0.034,1.091,3.289
20.050,-0.014,-0.041,1.073,2.888
20.060,-0.018,-0.030,1.054,1.315
20.070,-0.015,-0.033,1.036,-0.190
20.080,-0.008,-0.015,1.020,0.412
20.090,0.003,-0.006,1.009,0.947
20.100,0.007,0.012,1.008,1.483
20.110,0.024,0.008,1.017,0.178
20.120,0.034,0.023,1.039,-0.625
20.130,0.025,0.006,1.073,-0.725
20.140,0.007,-0.012,1.114,-0.491
20.150,0.012,-0.034,1.159,0.178
20.160,-0.002,-0.039,1.208,0.579
20.170,-0.023,-0.050,1.264,1.115
20.180,-0.029,-0.041,1.323,1.315
20.190,-0.021,-0.049,1.383,0.345
20.200,-0.024,-0.041,1.443,0.245
20.210,-0.019,-0.036,1.500,0.245
20.220,-0.017,-0.020,1.555,0.680
20.230,-0.033,-0.052,1.604,0.512
20.240,-0.021,0.026,1.648,-0.190
20.250,0.225,0.506,1.684,0.278
20.260,0.466,1.123,1.710,0.546
20.270,0.319,0.832,1.724,0.981
20.280,0.031,0.169,1.725,0.077
20.290,-0.081,-0.084,1.720,1.115
20.300,-0.044,-0.070,1.712,6.133
20.310,-0.022,-0.067,1.707,4.092
20.320,-0.030,-0.069,1.708,-1.930
20.330,-0.024,-0.067,1.716,-6.178
20.340,-0.022,-0.053,1.731,-6.981
20.350,-0.017,-0.052,1.749,0.914
20.360,-0.015,-0.036,1.767,6.634
20.370,-0.010,-0.034,1.782,4.092
20.380,-0.007,-0.019,1.792,1.315
20.390,0.001,-0.016,1.799,0.245
20.400,0.005,-0.001,1.800,0.111
20.410,0.015,0.002,1.796,-0.926
20.420,0.019,0.015,1.789,-0.826
20.430,0.027,0.018,1.778,-0.926
20.440,0.035,0.040,1.763,-2.097
20.450,0.048,0.052,1.746,-2.398
20.460,0.062,0.075,1.728,-1.896
20.470,0.078,0.090,1.708,-1.160
20.480,0.086,0.125,1.688,-0.023
20.490,0.101,0.143,1.670,0.680
20.500,0.115,0.178,1.653,0.379
20.510,0.122,0.200,1.637,0.011
20.520,0.115,0.209,1.623,0.379
20.530,0.097,0.169,1.608,0.947
20.540,0.058,0.116,1.593,1.851
20.550,0.019,0.046,1.579,2.486
20.560,-0.014,-0.000,1.564,1.683
20.570,-0.026,-0.043,1.551,-0.157
20.580,-0.037,-0.058,1.539,-1.729
20.590,-0.040,-0.072,1.527,-2.131
20.600,-0.042,-0.067,1.517,-2.331
20.610,-0.039,-0.070,1.507,-2.465
20.620,-0.039,-0.061,1.498,-0.859
20.630,-0.038,-0.063,1.490,-0.424
20.640,-0.039,-0.054,1.483,0.379
20.650,-0.037,-0.057,1.476,1.449
20.660,-0.038,-0.048,1.469,3.356
20.670,-0.033,-0.052,1.463,6.333
20.680,-0.034,-0.043,1.458,5.698
20.690,-0.030,-0.046,1.453,0.245
20.700,-0.027,-0.044,1.448,-2.566
20.710,-0.023,-0.050,1.444,-0.859
20.720,-0.021,-0.039,1.441,-0.558
20.730,-0.018,-0.040,1.440,-1.896
20.740,-0.017,-0.038,1.441,-4.271
20.750,-0.015,-0.043,1.446,-5.509
20.760,-0.016,-0.035,1.456,-4.405
20.770,-0.016,-0.041,1.470,-1.227
20.780,-0.019,-0.033,1.487,0.847
20.790,-0.017,-0.040,1.503,0.278
20.800,-0.019,-0.033,1.516,-0.157
20.810,-0.019,-0.037,1.526,0.680
20.820,-0.019,-0.029,1.534,2.118
20.830,-0.017,-0.032,1.542,2.821
20.840,-0.019,-0.025,1.549,3.456
20.850,-0.017,-0.029,1.556,3.624
20.860,-0.016,-0.019,1.563,2.754
20.870,-0.009,-0.010,1.567,1.917
20.880,-0.005,0.012,1.569,1.014
20.890,0.002,0.021,1.568,1.081
20.900,0.015,0.028,1.565,1.549
20.910,0.028,0.030,1.559,2.185
20.920,0.016,0.031,1.549,2.118
20.930,0.003,0.003,1.535,1.248
20.940,0.005,-0.011,1.517,0.747
20.950,-0.006,-0.030,1.496,0.914
20.960,-0.029,-0.029,1.471,1.416
20.970,-0.031,-0.037,1.441,0.914
20.980,-0.029,-0.031,1.407,0.245
20.990,-0.028,-0.033,1.370,-0.023
21.000,-0.030,-0.019,1.326,-0.157
21.010,-0.028,-0.017,1.277,0.512
21.020,-0.040,-0.031,1.225,0.847
21.030,-0.034,0.021,1.169,0.880
21.040,0.175,0.477,1.114,0.546
21.050,0.424,1.116,1.062,0.713
21.060,0.310,0.912,1.012,0.981
21.070,0.038,0.211,0.966,0.379
21.080,-0.087,-0.065,0.920,1.014
21.090,-0.053,-0.077,0.876,6.835
21.100,-0.030,-0.059,0.831,6.199
21.110,-0.036,-0.068,0.789,-1.495
21.120,-0.034,-0.051,0.749,-6.279
21.130,-0.027,-0.048,0.712,-7.751
21.140,-0.025,-0.038,0.677,0.445
21.150,-0.021,-0.036,0.644,8.341
21.160,-0.020,-0.022,0.614,6.066
21.170,-0.015,-0.019,0.586,1.315
21.180,-0.011,-0.005,0.561,-0.960
21.190,-0.006,-0.000,0.537,-1.194
21.200,0.000,0.008,0.511,-0.391
21.210,0.008,0.013,0.474,-0.324
21.220,0.014,0.030,0.421,-1.863
21.230,0.022,0.035,0.352,-2.030
21.240,0.031,0.054,0.271,-2.064
21.250,0.044,0.068,0.181,-1.027
21.260,0.057,0.095,0.085,0.546
21.270,0.074,0.119,-0.019,1.884
21.280,0.088,0.154,-0.129,1.516
21.290,0.101,0.174,-0.248,0.680
21.300,0.108,0.199,-0.379,0.914
21.310,0.106,0.203,-0.529,1.717
21.320,0.082,0.177,-0.703,2.219
21.330,0.043,0.112,-0.893,1.884
21.340,0.004,0.055,-1.084,1.817
21.350,-0.025,-0.004,-1.264,1.683
21.360,-0.044,-0.037,-1.426,1.583
21.370,-0.053,-0.059,-1.566,0.813
21.380,-0.056,-0.061,-1.683,-0.291
21.390,-0.056,-0.070,-1.778,-1.629
21.400,-0.057,-0.063,-1.850,-2.030
21.410,-0.055,-0.064,-1.901,-0.391
21.420,-0.055,-0.058,-1.930,1.282
21.430,-0.054,-0.056,-1.940,1.148
21.440,-0.056,-0.047,-1.931,1.951
21.450,-0.053,-0.047,-1.908,3.557
21.460,-0.051,-0.040,-1.872,7.538
21.470,-0.051,-0.043,-1.825,8.006
21.480,-0.049,-0.038,-1.770,2.252
21.490,-0.045,-0.040,-1.710,-0.391
21.500,-0.043,-0.032,-1.646,1.516
21.510,-0.040,-0.038,-1.576,2.185
21.520,-0.038,-0.033,-1.501,-0.893
21.530,-0.038,-0.036,-1.422,-5.074
21.540,-0.037,-0.033,-1.337,-6.145
21.550,-0.036,-0.035,-1.248,-2.800
21.560,-0.035,-0.030,-1.156,0.780
21.570,-0.036,-0.035,-1.062,0.412
21.580,-0.036,-0.031,-0.972,-1.562
21.590,-0.035,-0.034,-0.884,-1.361
21.600,-0.034,-0.029,-0.799,1.315
21.610,-0.035,-0.034,-0.714,2.787
21.620,-0.036,-0.030,-0.631,2.520
21.630,-0.034,-0.033,-0.546,1.483
21.640,-0.033,-0.024,-0.461,1.951
21.650,-0.027,-0.016,-0.377,2.988
21.660,-0.020,0.003,-0.296,3.155
21.670,-0.014,0.016,-0.218,2.352
21.680,-0.000,0.023,-0.143,1.115
21.690,0.013,0.019,-0.072,1.014
21.700,0.008,0.025,-0.008,0.847
21.710,-0.010,-0.001,0.050,0.345
21.720,-0.010,-0.023,0.101,0.245
21.730,-0.015,-0.041,0.144,0.880
21.740,-0.037,-0.043,0.182,0.947
21.750,-0.045,-0.050,0.214,0.680
21.760,-0.042,-0.047,0.240,0.245
21.770,-0.042,-0.047,0.262,0.747
21.780,-0.042,-0.038,0.279,0.880
21.790,-0.039,-0.034,0.293,0.680
21.800,-0.050,-0.042,0.305,0.345
21.810,-0.054,-0.010,0.315,0.011
21.820,0.158,0.377,0.323,0.245
21.830,0.461,1.072,0.329,0.646
21.840,0.391,1.029,0.334,0.813
21.850,0.080,0.291,0.337,0.044
21.860,-0.085,-0.074,0.337,2.118
21.870,-0.065,-0.084,0.334,8.039
21.880,-0.045,-0.077,0.327,2.754
21.890,-0.051,-0.093,0.319,-4.907
21.900,-0.047,-0.084,0.310,-3.669
21.910,-0.043,-0.078,0.300,-0.190
21.920,-0.039,-0.068,0.288,2.888
21.930,-0.036,-0.062,0.274,2.955
21.940,-0.032,-0.049,0.260,1.416
21.950,-0.027,-0.045,0.246,2.419
21.960,-0.023,-0.031,0.233,3.155
21.970,-0.019,-0.028,0.221,0.981
21.980,-0.014,-0.015,0.210,-2.231
21.990,-0.009,-0.010,0.199,-2.432
22.000,-0.002,0.003,0.184,-1.930
22.010,0.008,0.011,0.157,-1.997
22.020,0.018,0.027,0.112,-1.796
22.030,0.030,0.044,0.050,-0.525
22.040,0.044,0.069,-0.023,0.245
22.050,0.058,0.091,-0.101,0.713
22.060,0.075,0.123,-0.176,1.148
22.070,0.088,0.149,-0.247,1.048
22.080,0.095,0.175,-0.310,1.416
22.090,0.093,0.179,-0.363,1.616
22.100,0.073,0.155,-0.405,1.851
22.110,0.035,0.090,-0.437,1.817
22.120,-0.001,0.032,-0.463,1.817
22.130,-0.027,-0.022,-0.483,1.014
22.140,-0.043,-0.058,-0.499,0.512
22.150,-0.055,-0.082,-0.510,0.144
22.160,-0.058,-0.086,-0.518,-0.123
22.170,-0.058,-0.092,-0.522,-1.060
22.180,-0.057,-0.088,-0.523,-1.930
22.190,-0.056,-0.086,-0.520,-2.566
22.200,-0.053,-0.078,-0.517,0.680
22.210,-0.052,-0.075,-0.516,2.018
22.220,-0.049,-0.069,-0.515,2.285
22.230,-0.048,-0.072,-0.515,3.323
22.240,-0.047,-0.070,-0.515,2.285
22.250,-0.046,-0.069,-0.515,2.453
22.260,-0.046,-0.063,-0.511,3.724
22.270,-0.046,-0.064,-0.505,3.189
22.280,-0.045,-0.059,-0.494,1.784
22.290,-0.043,-0.060,-0.479,0.345
22.300,-0.040,-0.057,-0.463,-1.763
22.310,-0.038,-0.056,-0.443,-3.335
22.320,-0.035,-0.050,-0.421,-3.101
22.330,-0.035,-0.053,-0.397,-2.499
22.340,-0.035,-0.053,-0.372,-1.997
22.350,-0.036,-0.055,-0.346,-2.097
22.360,-0.034,-0.053,-0.319,-1.863
22.370,-0.033,-0.057,-0.293,0.345
22.380,-0.033,-0.053,-0.267,0.914
22.390,-0.033,-0.053,-0.242,0.880
22.400,-0.031,-0.049,-0.218,0.646
22.410,-0.032,-0.052,-0.196,1.148
22.420,-0.031,-0.050,-0.174,1.717
22.430,-0.030,-0.050,-0.152,2.252
22.440,-0.027,-0.046,-0.130,2.620
22.450,-0.026,-0.046,-0.108,1.951
22.460,-0.024,-0.040,-0.085,1.750
22.470,-0.018,-0.024,-0.063,0.914
22.480,-0.010,0.000,-0.040,0.512
22.490,-0.003,0.006,-0.019,0.813
22.500,0.013,0.005,0.002,0.479
22.510,0.020,0.010,0.023,0.144
22.520,0.012,0.008,0.043,-0.525
22.530,-0.004,-0.023,0.062,-1.595
22.540,-0.001,-0.040,0.081,-0.926
22.550,-0.015,-0.051,0.100,0.178
22.560,-0.035,-0.056,0.118,1.248
22.570,-0.040,-0.060,0.135,1.148
22.580,-0.035,-0.054,0.152,0.780
22.590,-0.035,-0.051,0.168,1.115
22.600,-0.033,-0.044,0.183,1.215
22.610,-0.033,-0.041,0.197,0.479
22.620,-0.053,-0.054,0.210,-0.056
22.630,-0.023,0.024,0.220,0.245
22.640,0.259,0.517,0.230,0.914
22.650,0.517,1.151,0.239,0.278
22.660,0.352,0.876,0.248,0.379
22.670,0.034,0.158,0.256,-0.458
22.680,-0.083,-0.098,0.264,4.962
22.690,-0.051,-0.078,0.271,6.300
22.700,-0.043,-0.093,0.277,-2.867
22.710,-0.049,-0.099,0.283,-5.743
22.720,-0.043,-0.088,0.289,-1.027
22.730,-0.039,-0.083,0.295,1.717
22.740,-0.033,-0.074,0.301,2.955
22.750,-0.030,-0.066,0.308,2.486
22.760,-0.026,-0.056,0.314,1.717
22.770,-0.023,-0.047,0.323,2.821
22.780,-0.018,-0.037,0.333,3.356
22.790,-0.014,-0.030,0.347,0.512
22.800,-0.008,-0.019,0.363,-2.264
22.810,-0.002,-0.012,0.381,-2.298
22.820,0.007,-0.002,0.400,-2.097
22.830,0.014,0.007,0.417,-1.562
22.840,0.024,0.023,0.432,-0.424
22.850,0.036,0.043,0.444,0.880
22.860,0.052,0.068,0.456,1.248
22.870,0.065,0.094,0.466,0.680
22.880,0.082,0.125,0.476,0.512
22.890,0.095,0.153,0.489,0.680
22.900,0.104,0.177,0.506,1.048
22.910,0.099,0.177,0.529,1.416
22.920,0.077,0.144,0.560,1.549
22.930,0.038,0.082,0.598,1.248
22.940,0.003,0.018,0.639,0.512
22.950,-0.025,-0.034,0.680,-0.257
22.960,-0.038,-0.068,0.720,0.178
22.970,-0.046,-0.087,0.759,0.044
22.980,-0.046,-0.094,0.796,-0.090
22.990,-0.048,-0.098,0.833,-0.659
23.000,-0.045,-0.095,0.868,-1.227
23.010,-0.046,-0.090,0.901,-1.027
23.020,-0.043,-0.083,0.932,1.248
23.030,-0.042,-0.080,0.959,1.483
23.040,-0.041,-0.076,0.985,2.319
23.050,-0.041,-0.076,1.010,3.590
23.060,-0.038,-0.071,1.035,2.587
23.070,-0.039,-0.067,1.060,3.155
23.080,-0.036,-0.063,1.084,3.022
23.090,-0.036,-0.059,1.109,1.148
23.100,-0.033,-0.059,1.134,0.211
23.110,-0.034,-0.057,1.158,-0.692
23.120,-0.031,-0.055,1.181,-2.398
23.130,-0.029,-0.056,1.201,-3.268
23.140,-0.025,-0.057,1.218,-2.733
23.150,-0.025,-0.056,1.232,-1.796
23.160,-0.023,-0.057,1.241,-1.662
23.170,-0.024,-0.057,1.249,-1.963
23.180,-0.022,-0.059,1.254,-0.692
23.190,-0.023,-0.060,1.258,1.282
23.200,-0.020,-0.053,1.259,1.784
23.210,-0.020,-0.051,1.255,0.713
23.220,-0.018,-0.053,1.245,0.646
23.230,-0.019,-0.055,1.229,1.817
23.240,-0.015,-0.055,1.211,3.222
23.250,-0.015,-0.053,1.192,3.356
23.260,-0.014,-0.054,1.171,3.155
23.270,-0.016,-0.054,1.151,2.118
23.280,-0.013,-0.051,1.132,1.616
23.290,-0.014,-0.051,1.114,0.813
23.300,-0.012,-0.049,1.098,0.178
23.310,-0.011,-0.042,1.084,0.077
23.320,-0.001,-0.030,1.070,0.680
23.330,0.004,-0.013,1.057,0.044
23.340,0.015,-0.009,1.046,-0.324
23.350,0.030,-0.008,1.039,-0.224
23.360,0.037,0.003,1.035,-0.357
23.370,0.017,-0.012,1.033,0.144
23.380,0.012,-0.041,1.036,0.077
23.390,0.010,-0.057,1.046,0.613
23.400,-0.009,-0.065,1.064,1.683
23.410,-0.028,-0.066,1.091,2.252
23.420,-0.025,-0.069,1.123,2.152
23.430,-0.023,-0.064,1.160,0.713
23.440,-0.021,-0.060,1.203,0.780
23.450,-0.022,-0.055,1.250,0.011
23.460,-0.020,-0.058,1.302,0.278
23.470,-0.042,-0.069,1.361,0.445
23.480,0.036,0.102,1.425,0.312
23.490,0.339,0.709,1.493,0.345
23.500,0.479,1.124,1.559,0.044
23.510,0.236,0.583,1.622,-0.224
23.520,-0.020,0.010,1.679,-1.160
23.530,-0.073,-0.123,1.730,3.222
23.540,-0.027,-0.096,1.770,6.802
23.550,-0.024,-0.105,1.795,1.984
23.560,-0.024,-0.104,1.806,-2.532
23.570,-0.022,-0.087,1.809,-6.781
23.580,-0.018,-0.082,1.810,-4.372
23.590,-0.014,-0.075,1.814,4.159
23.600,-0.008,-0.066,1.820,5.999
23.610,-0.005,-0.056,1.826,2.620
23.620,0.001,-0.048,1.832,1.583
23.630,0.003,-0.041,1.836,1.382
23.640,0.011,-0.036,1.839,0.178
23.650,0.014,-0.029,1.839,-0.826
23.660,0.023,-0.016,1.835,-0.692
23.670,0.031,-0.000,1.828,-1.997
23.680,0.042,0.010,1.818,-2.331
23.690,0.049,0.026,1.806,-2.264
23.700,0.063,0.044,1.793,-1.696
23.710,0.077,0.071,1.779,0.312
23.720,0.095,0.100,1.764,1.081
23.730,0.105,0.129,1.750,0.512
23.740,0.119,0.156,1.735,0.044
23.750,0.121,0.177,1.722,-0.090
23.760,0.113,0.169,1.710,0.680
23.770,0.083,0.126,1.700,1.115
23.780,0.045,0.065,1.690,1.483
23.790,0.007,0.004,1.680,1.148
23.800,-0.016,-0.046,1.670,0.379
23.810,-0.033,-0.077,1.658,-0.424
23.820,-0.039,-0.096,1.645,-0.659
23.830,-0.042,-0.102,1.633,-1.328
23.840,-0.039,-0.099,1.620,-2.934
23.850,-0.041,-0.094,1.607,-2.766
23.860,-0.038,-0.097,1.593,-1.227
23.870,-0.040,-0.092,1.578,0.914
23.880,-0.039,-0.090,1.564,1.683
23.890,-0.039,-0.084,1.551,2.152
23.900,-0.036,-0.082,1.539,4.159
23.910,-0.037,-0.078,1.528,6.735
23.920,-0.032,-0.076,1.517,4.259
23.930,-0.032,-0.073,1.505,-1.060
23.940,-0.027,-0.072,1.494,-2.398
23.950,-0.026,-0.069,1.485,-0.659
23.960,-0.022,-0.067,1.478,-0.893
23.970,-0.021,-0.062,1.477,-2.766
23.980,-0.016,-0.061,1.482,-4.974
23.990,-0.019,-0.063,1.493,-4.840
24.000,-0.018,-0.067,1.510,-3.235
24.010,-0.019,-0.067,1.527,-0.558
24.020,-0.016,-0.068,1.545,0.847
24.030,-0.018,-0.065,1.560,-0.257
24.040,-0.017,-0.065,1.575,-0.926
24.050,-0.019,-0.064,1.591,0.512
24.060,-0.016,-0.069,1.610,1.917
24.070,-0.018,-0.069,1.630,2.587
24.080,-0.014,-0.068,1.653,3.423
24.090,-0.016,-0.064,1.680,3.557
24.100,-0.015,-0.066,1.708,2.118
24.110,-0.016,-0.061,1.735,1.181
24.120,-0.010,-0.055,1.759,0.646
24.130,-0.005,-0.042,1.780,1.014
24.140,0.003,-0.029,1.797,0.981
24.150,0.012,-0.019,1.811,0.981
24.160,0.029,-0.015,1.820,1.115
24.170,0.026,-0.006,1.826,0.914
24.180,0.009,-0.029,1.828,0.144
24.190,0.005,-0.047,1.827,-0.391
24.200,0.006,-0.066,1.823,0.379
24.210,-0.019,-0.074,1.816,0.981
24.220,-0.026,-0.079,1.806,1.048
24.230,-0.024,-0.077,1.794,0.747
24.240,-0.021,-0.076,1.779,-0.190
24.250,-0.024,-0.068,1.761,-0.224
24.260,-0.020,-0.061,1.741,0.713
24.270,-0.024,-0.064,1.720,1.382
24.280,-0.042,-0.077,1.697,1.650
24.290,0.055,0.167,1.673,1.549
24.300,0.347,0.829,1.646,0.813
24.310,0.406,1.091,1.618,2.051
24.320,0.158,0.449,1.590,2.486
24.330,-0.052,-0.038,1.560,0.011
24.340,-0.071,-0.132,1.529,4.292
24.350,-0.028,-0.098,1.498,7.538
24.360,-0.024,-0.105,1.467,1.583
24.370,-0.028,-0.099,1.435,-4.171
24.380,-0.023,-0.093,1.404,-8.286
24.390,-0.022,-0.080,1.373,-5.108
24.400,-0.016,-0.074,1.342,5.129
24.410,-0.014,-0.065,1.309,7.939
24.420,-0.009,-0.061,1.276,3.456
24.430,-0.006,-0.052,1.241,-0.157
24.440,0.001,-0.049,1.205,-0.725
24.450,0.004,-0.037,1.166,-0.960
24.460,0.012,-0.030,1.116,-0.558
24.470,0.015,-0.017,1.045,-0.960
24.480,0.024,-0.009,0.952,-1.127
24.490,0.031,0.007,0.842,-2.097
24.500,0.046,0.022,0.725,-2.566
24.510,0.056,0.046,0.607,-1.696
24.520,0.073,0.068,0.492,0.245
24.530,0.088,0.101,0.386,1.683
24.540,0.103,0.129,0.288,0.813
24.550,0.110,0.160,0.199,0.813
24.560,0.116,0.168,0.116,1.048
24.570,0.100,0.156,0.032,2.285
24.580,0.068,0.105,-0.055,2.854
24.590,0.025,0.045,-0.145,2.118
24.600,-0.005,-0.018,-0.234,2.118
24.610,-0.031,-0.062,-0.318,1.181
24.620,-0.042,-0.091,-0.397,0.178
24.630,-0.051,-0.098,-0.469,-0.257
24.640,-0.048,-0.103,-0.538,-1.294
24.650,-0.050,-0.104,-0.605,-2.030
24.660,-0.046,-0.103,-0.671,-0.993
24.670,-0.048,-0.097,-0.739,0.680
24.680,-0.046,-0.098,-0.813,1.683
24.690,-0.048,-0.092,-0.894,2.319
24.700,-0.046,-0.094,-0.981,2.587
24.710,-0.047,-0.086,-1.067,4.962
24.720,-0.043,-0.083,-1.146,9.411
24.730,-0.043,-0.077,-1.217,6.701
24.740,-0.038,-0.079,-1.282,-0.357
24.750,-0.038,-0.076,-1.344,-1.763
24.760,-0.033,-0.077,-1.407,0.345
24.770,-0.034,-0.072,-1.475,1.048
24.780,-0.029,-0.074,-1.548,-1.328
24.790,-0.030,-0.070,-1.620,-5.007
24.800,-0.026,-0.072,-1.686,-6.580
24.810,-0.029,-0.068,-1.741,-2.967
24.820,-0.025,-0.072,-1.783,0.780
24.830,-0.028,-0.067,-1.812,0.646
24.840,-0.024,-0.072,-1.825,-1.595
24.850,-0.026,-0.068,-1.824,-0.993
24.860,-0.024,-0.069,-1.808,1.516
24.870,-0.027,-0.069,-1.779,3.222
24.880,-0.024,-0.075,-1.738,2.754
24.890,-0.027,-0.070,-1.689,1.784
24.900,-0.025,-0.070,-1.634,1.884
24.910,-0.028,-0.063,-1.573,2.587
24.920,-0.023,-0.064,-1.507,2.854
24.930,-0.021,-0.052,-1.435,1.951
24.940,-0.011,-0.038,-1.357,1.148
24.950,-0.006,-0.014,-1.276,0.512
24.960,0.009,-0.014,-1.194,0.613
24.970,0.020,-0.007,-1.113,0.847
24.980,0.019,-0.007,-1.034,0.445
24.990,0.001,-0.024,-0.957,-0.023
25.000,0.003,-0.055,-0.883,0.044
25.010,-0.005,-0.065,-0.808,0.981
25.020,-0.024,-0.074,-0.731,1.549
25.030,-0.038,-0.074,-0.652,1.650
25.040,-0.033,-0.078,-0.575,1.248
25.050,-0.035,-0.068,-0.499,1.014
25.060,-0.031,-0.064,-0.426,0.479
25.070,-0.031,-0.055,-0.354,0.847
25.080,-0.041,-0.071,-0.284,0.579
25.090,-0.054,-0.046,-0.214,0.579
25.100,0.134,0.293,-0.148,1.248
25.110,0.444,0.998,-0.086,1.248
25.120,0.420,1.051,-0.029,0.813
25.130,0.115,0.331,0.022,0.479
25.140,-0.070,-0.090,0.068,1.683
25.150,-0.066,-0.114,0.107,7.337
25.160,-0.038,-0.106,0.139,3.724
25.170,-0.049,-0.116,0.166,-3.669
25.180,-0.043,-0.111,0.187,-4.171
25.190,-0.040,-0.099,0.202,-1.662
25.200,-0.034,-0.096,0.213,3.122
25.210,-0.034,-0.083,0.219,4.059
25.220,-0.027,-0.079,0.223,1.750
25.230,-0.026,-0.065,0.226,1.750
25.240,-0.019,-0.057,0.230,2.453
25.250,-0.018,-0.044,0.232,0.713
25.260,-0.011,-0.039,0.235,-1.830
25.270,-0.008,-0.027,0.237,-2.833
25.280,0.002,-0.026,0.236,-1.863
25.290,0.007,-0.010,0.232,-2.131
25.300,0.020,0.000,0.222,-1.796
25.310,0.029,0.023,0.205,-0.491
25.320,0.045,0.043,0.184,0.713
25.330,0.057,0.075,0.160,1.248
25.340,0.075,0.098,0.135,0.713
25.350,0.086,0.128,0.111,0.546
25.360,0.100,0.147,0.088,1.081
25.370,0.098,0.163,0.067,1.984
25.380,0.086,0.136,0.048,2.018
25.390,0.047,0.083,0.031,1.650
25.400,0.012,0.013,0.015,1.349
25.410,-0.020,-0.039,-0.001,0.847
25.420,-0.037,-0.085,-0.017,0.646
25.430,-0.050,-0.103,-0.032,-0.023
25.440,-0.050,-0.119,-0.047,-0.123
25.450,-0.054,-0.117,-0.060,-1.060
25.460,-0.048,-0.118,-0.073,-1.729
25.470,-0.050,-0.108,-0.086,-1.796
25.480,-0.046,-0.109,-0.100,-0.056
25.490,-0.047,-0.101,-0.113,2.018
25.500,-0.043,-0.102,-0.125,1.984
25.510,-0.045,-0.097,-0.135,3.055
25.520,-0.042,-0.099,-0.144,2.988
25.530,-0.044,-0.088,-0.152,2.854
25.540,-0.039,-0.091,-0.158,4.125
25.550,-0.042,-0.086,-0.162,3.256
25.560,-0.038,-0.087,-0.164,2.252
25.570,-0.040,-0.082,-0.163,0.813
25.580,-0.035,-0.086,-0.159,-1.863
25.590,-0.036,-0.081,-0.155,-3.803
25.600,-0.033,-0.085,-0.151,-4.071
25.610,-0.034,-0.081,-0.148,-2.733
25.620,-0.029,-0.087,-0.148,-1.662
25.630,-0.033,-0.082,-0.151,-1.896
25.640,-0.028,-0.084,-0.156,-2.131
25.650,-0.030,-0.080,-0.162,-0.424
25.660,-0.026,-0.086,-0.168,1.349
25.670,-0.030,-0.082,-0.173,1.315
25.680,-0.027,-0.088,-0.177,1.349
25.690,-0.029,-0.083,-0.179,1.516
25.700,-0.024,-0.086,-0.179,2.118
25.710,-0.027,-0.080,-0.177,2.285
25.720,-0.023,-0.084,-0.174,2.654
25.730,-0.025,-0.077,-0.169,2.419
25.740,-0.023,-0.082,-0.164,1.483
25.750,-0.026,-0.077,-0.159,1.449
25.760,-0.021,-0.081,-0.154,0.512
25.770,-0.024,-0.074,-0.149,0.011
25.780,-0.020,-0.077,-0.142,0.077
25.790,-0.022,-0.070,-0.135,0.579
25.800,-0.018,-0.073,-0.126,-0.157
25.810,-0.022,-0.064,-0.116,-0.960
25.820,-0.018,-0.063,-0.105,-0.491
25.830,-0.010,-0.046,-0.094,0.144
25.840,-0.001,-0.035,-0.082,0.178
25.850,0.004,-0.022,-0.071,0.479
25.860,0.024,-0.024,-0.059,0.412
25.870,0.022,-0.015,-0.048,0.546
25.880,0.008,-0.043,-0.037,0.579
25.890,0.002,-0.067,-0.026,0.245
25.900,0.003,-0.087,-0.015,1.014
25.910,-0.023,-0.084,-0.005,1.215
25.920,-0.036,-0.093,0.005,1.616
25.930,-0.036,-0.088,0.014,0.947
25.940,-0.029,-0.088,0.023,0.847
25.950,-0.033,-0.079,0.032,1.081
25.960,-0.029,-0.080,0.040,0.044
25.970,-0.040,-0.081,0.050,-0.458
25.980,-0.053,-0.074,0.059,-0.424
25.990,0.116,0.230,0.069,-0.056
26.000,0.460,0.921,0.079,0.245
26.010,0.473,1.079,0.088,0.178
26.020,0.160,0.374,0.098,-0.157
26.030,-0.065,-0.085,0.106,1.784
26.040,-0.063,-0.126,0.115,7.270
26.050,-0.041,-0.111,0.125,2.152
26.060,-0.045,-0.134,0.135,-5.309
26.070,-0.045,-0.119,0.145,-2.532
26.080,-0.037,-0.116,0.154,0.713
26.090,-0.037,-0.101,0.163,2.219
26.100,-0.031,-0.098,0.171,2.587
26.110,-0.031,-0.084,0.180,2.219
26.120,-0.023,-0.081,0.190,2.821
26.130,-0.021,-0.068,0.200,2.955
26.140,-0.015,-0.067,0.212,0.479
26.150,-0.014,-0.052,0.224,-1.997
26.160,-0.004,-0.048,0.236,-1.930
26.170,-0.000,-0.033,0.248,-1.796
26.180,0.011,-0.030,0.259,-1.863
26.190,0.016,-0.011,0.267,-0.993
26.200,0.031,0.002,0.269,0.011
26.210,0.041,0.028,0.261,0.379
26.220,0.059,0.048,0.230,0.613
26.230,0.072,0.085,0.152,-0.056
26.240,0.088,0.109,0.015,0.011
26.250,0.095,0.141,-0.172,0.613
26.260,0.100,0.151,-0.391,1.115
26.270,0.085,0.143,-0.621,1.416
26.280,0.060,0.088,-0.849,1.382
26.290,0.019,0.025,-1.065,1.616
26.300,-0.011,-0.042,-1.258,1.148
26.310,-0.034,-0.082,-1.426,0.947
26.320,-0.042,-0.116,-1.566,0.445
26.330,-0.051,-0.125,-1.678,0.312
26.340,-0.049,-0.136,-1.762,-0.692
26.350,-0.052,-0.129,-1.820,-1.495
26.360,-0.048,-0.131,-1.853,-1.896
26.370,-0.049,-0.119,-1.867,0.111
26.380,-0.045,-0.120,-1.864,1.750
26.390,-0.047,-0.109,-1.850,2.118
26.400,-0.042,-0.112,-1.827,2.921
26.410,-0.045,-0.102,-1.798,1.583
26.420,-0.042,-0.103,-1.763,2.185
26.430,-0.044,-0.092,-1.722,3.891
26.440,-0.039,-0.096,-1.673,2.687
26.450,-0.041,-0.090,-1.612,0.680
26.460,-0.034,-0.092,-1.538,0.412
26.470,-0.036,-0.084,-1.449,-0.525
26.480,-0.031,-0.091,-1.347,-2.064
26.490,-0.034,-0.089,-1.233,-1.629
26.500,-0.030,-0.097,-1.111,-1.763
26.510,-0.032,-0.090,-0.984,-2.198
26.520,-0.027,-0.098,-0.850,-2.164
26.530,-0.029,-0.093,-0.714,-2.365
26.540,-0.024,-0.099,-0.576,-0.659
26.550,-0.028,-0.093,-0.436,0.077
26.560,-0.023,-0.100,-0.293,0.412
26.570,-0.027,-0.093,-0.149,0.379
26.580,-0.023,-0.097,-0.004,0.947
26.590,-0.025,-0.092,0.140,1.951
26.600,-0.018,-0.097,0.284,2.419
26.610,-0.020,-0.088,0.426,2.553
26.620,-0.016,-0.092,0.562,2.152
26.630,-0.020,-0.084,0.688,2.051
26.640,-0.017,-0.088,0.802,1.449
26.650,-0.021,-0.082,0.902,0.880
26.660,-0.016,-0.090,0.993,0.847
26.670,-0.018,-0.083,1.076,1.282
26.680,-0.012,-0.085,1.154,0.914
26.690,-0.014,-0.078,1.227,0.044
26.700,-0.011,-0.086,1.296,-0.592
26.710,-0.013,-0.077,1.360,-0.458
26.720,-0.008,-0.079,1.418,0.077
26.730,-0.004,-0.062,1.468,0.546
26.740,0.009,-0.056,1.512,0.613
26.750,0.012,-0.036,1.551,0.847
26.760,0.031,-0.035,1.584,1.516
26.770,0.038,-0.018,1.612,1.081
26.780,0.022,-0.038,1.635,0.278
26.790,0.010,-0.060,1.654,0.044
26.800,0.015,-0.085,1.672,1.148
26.810,-0.008,-0.087,1.690,1.683
26.820,-0.022,-0.094,1.712,1.851
26.830,-0.023,-0.088,1.736,0.780
26.840,-0.018,-0.094,1.759,0.144
26.850,-0.020,-0.079,1.781,0.312
26.860,-0.013,-0.076,1.801,-0.123
26.870,-0.019,-0.071,1.818,-0.525
26.880,-0.038,-0.086,1.833,0.178
26.890,0.049,0.109,1.846,0.813
26.900,0.376,0.726,1.856,0.813
26.910,0.508,1.134,1.862,0.947
26.920,0.251,0.572,1.866,0.847
26.930,-0.024,-0.007,1.868,-0.391
26.940,-0.069,-0.137,1.869,5.263
26.950,-0.028,-0.097,1.868,7.002
26.960,-0.025,-0.120,1.864,-0.491
26.970,-0.031,-0.113,1.855,-4.037
26.980,-0.022,-0.107,1.841,-3.067
26.990,-0.021,-0.093,1.823,-0.458
27.000,-0.015,-0.092,1.802,1.784
27.010,-0.017,-0.075,1.779,2.854
27.020,-0.010,-0.076,1.754,2.754
27.030,-0.009,-0.061,1.729,3.724
27.040,-0.001,-0.061,1.705,3.155
27.050,-0.000,-0.049,1.680,-0.257
27.060,0.009,-0.047,1.658,-2.499
27.070,0.013,-0.029,1.636,-1.261
27.080,0.023,-0.026,1.615,-0.893
27.090,0.027,-0.006,1.596,-0.960
27.100,0.042,0.005,1.579,-0.692
27.110,0.053,0.031,1.563,0.044
27.120,0.070,0.046,1.549,1.115
27.130,0.081,0.084,1.535,0.880
27.140,0.100,0.109,1.522,0.111
27.150,0.109,0.144,1.510,0.011
27.160,0.117,0.158,1.501,0.747
27.170,0.106,0.161,1.497,1.516
27.180,0.085,0.118,1.498,2.352
27.190,0.043,0.060,1.502,2.018
27.200,0.011,-0.012,1.509,1.817
27.210,-0.017,-0.055,1.517,1.014
27.220,-0.028,-0.092,1.527,0.178
27.230,-0.040,-0.107,1.540,-0.424
27.240,-0.039,-0.122,1.557,-0.859
27.250,-0.043,-0.113,1.576,-1.930
27.260,-0.039,-0.119,1.597,-3.101
27.270,-0.044,-0.109,1.618,-1.361
27.280,-0.038,-0.110,1.636,1.248
27.290,-0.039,-0.100,1.651,1.549
27.300,-0.035,-0.104,1.661,2.085
27.310,-0.040,-0.094,1.670,2.854
27.320,-0.034,-0.097,1.676,4.527
27.330,-0.034,-0.088,1.682,3.791
27.340,-0.029,-0.094,1.688,0.613
27.350,-0.029,-0.080,1.697,-1.027
27.360,-0.021,-0.085,1.709,-0.960
27.370,-0.024,-0.074,1.723,-0.993
27.380,-0.020,-0.078,1.736,-2.566
27.390,-0.021,-0.069,1.749,-4.037
27.400,-0.015,-0.075,1.764,-3.903
27.410,-0.016,-0.066,1.780,-2.632
27.420,-0.014,-0.075,1.797,-1.227
27.430,-0.018,-0.073,1.813,-0.157
27.440,-0.015,-0.078,1.823,-0.458
27.450,-0.018,-0.070,1.824,-1.160
27.460,-0.013,-0.073,1.815,0.044
27.470,-0.015,-0.066,1.797,0.479
27.480,-0.010,-0.075,1.774,1.817
27.490,-0.014,-0.067,1.749,2.988
27.500,-0.011,-0.073,1.729,4.025
27.510,-0.015,-0.064,1.714,3.590
27.520,-0.013,-0.069,1.704,1.750
27.530,-0.014,-0.063,1.697,-0.291
27.540,-0.010,-0.071,1.692,-0.458
27.550,-0.012,-0.062,1.690,0.713
27.560,-0.006,-0.061,1.690,1.282
27.570,-0.003,-0.043,1.690,1.416
27.580,0.006,-0.044,1.691,0.713
27.590,0.010,-0.022,1.694,0.245
27.600,0.028,-0.019,1.697,-0.692
27.610,0.039,-0.003,1.700,-0.324
27.620,0.028,-0.013,1.702,-0.692
27.630,0.010,-0.033,1.702,-1.294
27.640,0.017,-0.058,1.699,-0.391
27.650,-0.004,-0.064,1.693,0.512
27.660,-0.022,-0.078,1.686,1.181
27.670,-0.027,-0.069,1.678,1.483
27.680,-0.021,-0.071,1.671,0.579
27.690,-0.026,-0.063,1.662,-0.090
27.700,-0.022,-0.066,1.654,-0.257
27.710,-0.024,-0.055,1.646,0.011
27.720,-0.037,-0.081,1.638,0.111
27.730,-0.020,0.018,1.632,0.412
27.740,0.225,0.517,1.626,0.111
27.750,0.441,1.100,1.625,-0.157
27.760,0.286,0.749,1.629,-0.190
27.770,0.015,0.105,1.644,-0.324
27.780,-0.081,-0.123,1.669,0.445
27.790,-0.043,-0.109,1.703,5.965
27.800,-0.019,-0.103,1.743,5.463
27.810,-0.026,-0.100,1.786,-0.023
27.820,-0.019,-0.098,1.829,-4.104
27.830,-0.019,-0.081,1.867,-7.751
27.840,-0.014,-0.082,1.899,-1.662
27.850,-0.013,-0.067,1.924,5.564
27.860,-0.006,-0.066,1.941,4.761
27.870,-0.006,-0.052,1.950,1.583
27.880,0.004,-0.051,1.953,0.011
27.890,0.006,-0.035,1.949,-0.893
27.900,0.014,-0.031,1.939,-1.227
27.910,0.016,-0.013,1.924,-0.659
27.920,0.028,-0.013,1.904,-0.157
27.930,0.034,0.006,1.881,-1.060
27.940,0.048,0.016,1.856,-2.699
27.950,0.058,0.042,1.829,-2.465
27.960,0.077,0.058,1.802,-0.893
27.970,0.090,0.095,1.775,0.412
27.980,0.108,0.117,1.747,1.516
27.990,0.117,0.154,1.719,1.583
28.000,0.126,0.171,1.692,1.282
28.010,0.118,0.182,1.666,1.817
28.020,0.099,0.145,1.640,1.483
28.030,0.055,0.088,1.615,1.282
28.040,0.019,0.015,1.591,1.449
28.050,-0.014,-0.029,1.568,1.048
28.060,-0.029,-0.075,1.546,0.312
28.070,-0.040,-0.090,1.524,-0.625
28.080,-0.039,-0.102,1.502,-1.461
28.090,-0.044,-0.092,1.480,-2.198
28.100,-0.040,-0.098,1.459,-2.432
28.110,-0.043,-0.089,1.438,-0.859
28.120,-0.040,-0.090,1.418,1.048
28.130,-0.045,-0.080,1.397,1.148
28.140,-0.040,-0.084,1.376,1.650
28.150,-0.042,-0.074,1.354,2.787
28.160,-0.036,-0.081,1.334,6.735
28.170,-0.037,-0.070,1.316,8.140
28.180,-0.032,-0.073,1.301,2.654
28.190,-0.034,-0.065,1.287,-2.164
28.200,-0.028,-0.065,1.275,-1.261
28.210,-0.027,-0.056,1.264,1.148
28.220,-0.022,-0.067,1.252,1.014
28.230,-0.024,-0.053,1.238,-1.896
28.240,-0.020,-0.060,1.221,-5.342
28.250,-0.023,-0.056,1.202,-4.606
28.260,-0.020,-0.061,1.181,-1.261
28.270,-0.024,-0.052,1.158,0.445
28.280,-0.020,-0.058,1.134,-1.093
28.290,-0.023,-0.049,1.109,-1.328
28.300,-0.019,-0.062,1.084,0.914
28.310,-0.023,-0.054,1.058,3.390
28.320,-0.020,-0.058,1.032,3.456
28.330,-0.022,-0.050,1.006,2.821
28.340,-0.020,-0.058,0.979,1.717
28.350,-0.023,-0.047,0.952,2.520
28.360,-0.013,-0.041,0.922,3.122
28.370,-0.007,-0.019,0.890,2.654
28.380,0.003,-0.013,0.857,1.884
28.390,0.011,0.004,0.822,1.014
28.400,0.028,0.003,0.786,0.880
28.410,0.018,0.010,0.748,0.780
28.420,0.004,-0.018,0.706,0.981
28.430,0.001,-0.032,0.657,0.914
28.440,-0.001,-0.059,0.601,1.315
28.450,-0.027,-0.058,0.541,1.851
28.460,-0.031,-0.067,0.478,1.549
28.470,-0.031,-0.061,0.414,0.914
28.480,-0.028,-0.065,0.354,-0.056
28.490,-0.031,-0.050,0.298,0.044
28.500,-0.026,-0.051,0.250,0.345
28.510,-0.037,-0.058,0.209,0.379
28.520,-0.042,-0.036,0.175,0.479
28.530,0.129,0.340,0.147,1.014
28.540,0.411,1.019,0.127,0.914
28.550,0.361,1.009,0.112,1.248
28.560,0.088,0.287,0.102,1.048
28.570,-0.076,-0.077,0.097,0.546
28.580,-0.057,-0.116,0.096,6.166
28.590,-0.029,-0.090,0.097,6.300
28.600,-0.034,-0.107,0.099,-1.194
28.610,-0.035,-0.090,0.101,-4.606
28.620,-0.027,-0.088,0.099,-5.442
28.630,-0.027,-0.068,0.091,0.546
28.640,-0.020,-0.066,0.074,6.735
28.650,-0.022,-0.055,0.047,5.062
28.660,-0.018,-0.056,0.011,0.981
28.670,-0.016,-0.040,-0.032,-0.224
28.680,-0.007,-0.038,-0.082,-0.391
28.690,-0.005,-0.022,-0.143,-0.224
28.700,0.005,-0.021,-0.228,-0.491
28.710,0.007,-0.001,-0.348,-0.792
28.720,0.018,0.004,-0.512,-2.331
28.730,0.022,0.026,-0.713,-3.034
28.740,0.038,0.037,-0.933,-1.763
28.750,0.049,0.065,-1.158,0.512
28.760,0.067,0.087,-1.371,1.683
28.770,0.082,0.125,-1.564,1.416
28.780,0.099,0.146,-1.729,0.680
28.790,0.103,0.177,-1.867,0.847
28.800,0.107,0.176,-1.978,1.349
28.810,0.087,0.164,-2.065,2.219
28.820,0.055,0.102,-2.129,2.018
28.830,0.010,0.040,-2.173,2.018
28.840,-0.019,-0.024,-2.199,2.118
28.850,-0.042,-0.057,-2.206,1.549
28.860,-0.048,-0.085,-2.193,0.847
28.870,-0.057,-0.087,-2.159,-0.625
28.880,-0.054,-0.096,-2.105,-0.491
28.890,-0.056,-0.086,-2.037,-1.629
28.900,-0.051,-0.091,-1.959,-1.562
28.910,-0.052,-0.079,-1.876,0.011
28.920,-0.050,-0.080,-1.787,1.382
28.930,-0.054,-0.067,-1.695,1.851
28.940,-0.052,-0.074,-1.594,2.654
28.950,-0.054,-0.063,-1.484,4.359
28.960,-0.048,-0.067,-1.366,6.935
28.970,-0.048,-0.058,-1.244,5.062
28.980,-0.043,-0.062,-1.122,1.549
28.990,-0.044,-0.051,-1.002,0.077
29.000,-0.038,-0.054,-0.887,0.880
29.010,-0.038,-0.043,-0.779,0.412
29.020,-0.033,-0.051,-0.679,-3.101
29.030,-0.034,-0.045,-0.589,-5.141
29.040,-0.032,-0.055,-0.507,-4.305
29.050,-0.033,-0.047,-0.434,-1.629
29.060,-0.029,-0.052,-0.367,-0.826
29.070,-0.033,-0.043,-0.306,-1.395
29.080,-0.030,-0.050,-0.252,-1.194
29.090,-0.032,-0.043,-0.202,0.211
29.100,-0.029,-0.049,-0.158,1.750
29.110,-0.031,-0.042,-0.118,2.185
29.120,-0.029,-0.048,-0.083,1.382
29.130,-0.033,-0.039,-0.050,1.449
29.140,-0.028,-0.044,-0.021,3.122
29.150,-0.029,-0.037,0.006,3.523
29.160,-0.025,-0.044,0.029,2.620
29.170,-0.027,-0.035,0.049,1.449
29.180,-0.022,-0.040,0.066,1.014
29.190,-0.023,-0.025,0.081,1.014
29.200,-0.012,-0.017,0.094,0.780
29.210,-0.008,0.005,0.106,1.081
29.220,0.001,0.011,0.117,0.546
29.230,0.013,0.022,0.125,-0.123
29.240,0.023,0.019,0.132,-0.257
29.250,0.007,0.016,0.136,-0.224
29.260,0.000,-0.020,0.137,-0.558
29.270,-0.002,-0.030,0.136,-0.324
29.280,-0.017,-0.044,0.132,1.483
29.290,-0.039,-0.039,0.128,1.951
29.300,-0.035,-0.047,0.124,1.717
29.310,-0.035,-0.036,0.120,1.181
29.320,-0.032,-0.039,0.116,0.847
29.330,-0.034,-0.026,0.111,0.579
29.340,-0.033,-0.037,0.106,0.278
29.350,-0.058,-0.038,0.100,0.680
29.360,0.040,0.152,0.091,0.847
29.370,0.359,0.792,0.082,0.412
29.380,0.486,1.188,0.074,0.546
29.390,0.225,0.625,0.065,0.379
29.400,-0.033,0.019,0.058,-0.458
29.410,-0.081,-0.091,0.053,5.798
29.420,-0.041,-0.067,0.049,5.497
29.430,-0.048,-0.079,0.047,-3.569
29.440,-0.046,-0.084,0.047,-5.074
29.450,-0.045,-0.070,0.047,-1.595
29.460,-0.040,-0.069,0.050,2.486
29.470,-0.037,-0.051,0.055,3.289
29.480,-0.031,-0.048,0.062,1.884
29.490,-0.031,-0.033,0.072,1.683
29.500,-0.024,-0.033,0.084,2.754
29.510,-0.022,-0.018,0.098,1.817
29.520,-0.016,-0.017,0.112,-1.662
29.530,-0.013,0.002,0.125,-3.335
29.540,-0.002,0.005,0.133,-1.863
29.550,0.003,0.021,0.128,-1.093
29.560,0.014,0.024,0.100,-1.261
29.570,0.022,0.045,0.046,-0.926
29.580,0.037,0.058,-0.028,0.144
29.590,0.050,0.090,-0.112,1.081
29.600,0.069,0.112,-0.198,0.947
29.610,0.081,0.148,-0.277,0.178
29.620,0.093,0.168,-0.346,0.445
29.630,0.097,0.194,-0.402,0.914
29.640,0.092,0.182,-0.445,1.282
29.650,0.063,0.148,-0.477,0.680
29.660,0.027,0.073,-0.498,1.048
29.670,-0.010,0.015,-0.512,0.479
29.680,-0.031,-0.040,-0.521,0.613
29.690,-0.046,-0.065,-0.528,-0.023
29.700,-0.050,-0.088,-0.535,-0.257
29.710,-0.055,-0.087,-0.542,-0.458
29.720,-0.052,-0.091,-0.547,-1.027
29.730,-0.053,-0.082,-0.549,-1.495
29.740,-0.049,-0.085,-0.549,-0.960
29.750,-0.049,-0.074,-0.546,1.349
29.760,-0.046,-0.076,-0.541,1.951
29.770,-0.046,-0.064,-0.535,3.323
29.780,-0.044,-0.068,-0.527,3.590
29.790,-0.045,-0.058,-0.518,1.851
29.800,-0.040,-0.061,-0.506,3.022
29.810,-0.042,-0.052,-0.490,3.657
29.820,-0.039,-0.059,-0.470,2.219
29.830,-0.040,-0.053,-0.447,0.947
29.840,-0.036,-0.060,-0.421,-0.625
29.850,-0.036,-0.055,-0.390,-2.867
29.860,-0.033,-0.064,-0.357,-3.602
29.870,-0.034,-0.057,-0.322,-3.502
29.880,-0.030,-0.062,-0.285,-2.432
29.890,-0.032,-0.051,-0.248,-1.963
29.900,-0.030,-0.056,-0.214,-1.696
29.910,-0.031,-0.050,-0.182,-0.625
29.920,-0.027,-0.057,-0.154,0.379
29.930,-0.028,-0.052,-0.129,1.014
29.940,-0.025,-0.062,-0.104,0.646
29.950,-0.027,-0.055,-0.081,0.914
29.960,-0.023,-0.060,-0.058,1.650
29.970,-0.025,-0.051,-0.036,2.252
29.980,-0.021,-0.056,-0.016,2.754
29.990,-0.022,-0.048,0.004,2.152
30.000,-0.020,-0.053,0.022,2.018
30.010,-0.022,-0.047,0.039,1.014
30.020,-0.019,-0.051,0.054,1.148
30.030,-0.020,-0.042,0.068,0.077
30.040,-0.016,-0.047,0.081,0.713
30.050,-0.019,-0.039,0.094,0.747
30.060,-0.018,-0.046,0.107,0.278
30.070,-0.020,-0.038,0.120,-0.893
30.080,-0.018,-0.041,0.132,-0.458
30.090,-0.015,-0.024,0.142,-0.257
30.100,-0.002,-0.017,0.151,0.211
30.110,0.002,0.005,0.162,0.412
30.120,0.014,0.004,0.172,0.747
30.130,0.027,0.013,0.183,0.813
30.140,0.024,0.010,0.193,0.613
30.150,0.004,-0.010,0.202,0.880
30.160,0.006,-0.041,0.211,0.880
30.170,-0.002,-0.044,0.220,1.349
30.180,-0.023,-0.052,0.226,1.282
30.190,-0.035,-0.048,0.232,1.315
30.200,-0.029,-0.055,0.239,0.747
30.210,-0.029,-0.045,0.245,0.178
30.220,-0.027,-0.046,0.251,0.278
30.230,-0.028,-0.033,0.256,-0.023
30.240,-0.041,-0.051,0.261,-0.123
30.250,-0.042,-0.002,0.264,0.178
30.260,0.191,0.389,0.267,-0.056
30.270,0.500,1.084,0.269,-0.157
30.280,0.422,1.001,0.272,-0.023
30.290,0.094,0.275,0.276,-0.458
30.300,-0.075,-0.082,0.281,2.888
30.310,-0.054,-0.070,0.286,7.772
30.320,-0.036,-0.082,0.291,0.111
30.330,-0.045,-0.089,0.296,-5.576
30.340,-0.040,-0.084,0.301,-1.796
30.350,-0.038,-0.067,0.307,1.248
30.360,-0.033,-0.064,0.313,2.553
30.370,-0.031,-0.050,0.321,2.453
30.380,-0.023,-0.047,0.330,2.386
30.390,-0.021,-0.034,0.341,3.356
30.400,-0.016,-0.031,0.353,3.256
30.410,-0.014,-0.017,0.365,0.412
30.420,-0.006,-0.016,0.378,-2.131
30.430,-0.002,-0.000,0.391,-1.461
30.440,0.005,0.003,0.402,-1.160
30.450,0.011,0.021,0.411,-1.562
30.460,0.024,0.028,0.414,-0.926
30.470,0.033,0.050,0.411,0.312
30.480,0.047,0.066,0.402,0.880
30.490,0.062,0.100,0.389,0.880
30.500,0.080,0.122,0.373,0.245
30.510,0.092,0.159,0.354,0.747
30.520,0.104,0.182,0.334,0.747
30.530,0.103,0.201,0.314,1.081
30.540,0.090,0.176,0.293,1.449
30.550,0.056,0.126,0.272,1.148
30.560,0.019,0.050,0.252,1.683
30.570,-0.013,-0.003,0.235,1.315
30.580,-0.032,-0.052,0.221,0.680
30.590,-0.045,-0.070,0.210,0.613
30.600,-0.047,-0.087,0.203,0.680
30.610,-0.050,-0.086,0.199,-0.056
30.620,-0.048,-0.091,0.197,-1.328
30.630,-0.049,-0.081,0.198,-1.528
30.640,-0.045,-0.082,0.201,0.981
30.650,-0.045,-0.073,0.205,1.750
30.660,-0.043,-0.076,0.209,1.951
30.670,-0.044,-0.066,0.213,2.988
30.680,-0.041,-0.068,0.217,2.888
30.690,-0.040,-0.058,0.223,2.587
30.700,-0.037,-0.062,0.230,3.490
30.710,-0.037,-0.055,0.242,1.817
30.720,-0.033,-0.061,0.258,1.014
30.730,-0.034,-0.055,0.277,0.680
30.740,-0.031,-0.061,0.297,-1.328
30.750,-0.029,-0.051,0.319,-2.699
30.760,-0.027,-0.055,0.339,-2.231
30.770,-0.028,-0.048,0.359,-1.997
30.780,-0.026,-0.054,0.377,-1.528
30.790,-0.028,-0.048,0.395,-1.696
30.800,-0.026,-0.055,0.412,-1.127
30.810,-0.027,-0.049,0.428,-0.458
30.820,-0.026,-0.054,0.442,0.111
30.830,-0.026,-0.047,0.455,-0.090
30.840,-0.024,-0.052,0.467,0.479
30.850,-0.024,-0.044,0.481,0.345
30.860,-0.022,-0.048,0.497,1.449
30.870,-0.022,-0.041,0.516,2.888
30.880,-0.021,-0.046,0.538,2.955
30.890,-0.020,-0.038,0.560,2.219
30.900,-0.017,-0.041,0.582,1.951
30.910,-0.018,-0.037,0.607,1.683
30.920,-0.016,-0.042,0.636,0.914
30.930,-0.019,-0.033,0.668,1.115
30.940,-0.017,-0.037,0.704,1.081
30.950,-0.017,-0.030,0.742,1.148
30.960,-0.015,-0.035,0.782,-0.257
30.970,-0.016,-0.029,0.820,-0.692
30.980,-0.014,-0.031,0.857,-0.558
30.990,-0.007,-0.016,0.891,-0.725
31.000,0.003,-0.009,0.922,0.278
31.010,0.007,0.009,0.950,0.245
31.020,0.024,0.007,0.976,0.847
31.030,0.037,0.021,1.001,0.680
31.040,0.025,0.008,1.024,0.947
31.050,0.011,-0.018,1.046,0.747
31.060,0.015,-0.042,1.064,0.981
31.070,0.000,-0.045,1.081,1.449
31.080,-0.021,-0.054,1.095,1.516
31.090,-0.026,-0.049,1.110,0.914
31.100,-0.021,-0.053,1.125,-0.391
31.110,-0.021,-0.045,1.141,-0.291
31.120,-0.019,-0.044,1.160,-0.291
31.130,-0.020,-0.035,1.179,-0.190
31.140,-0.040,-0.060,1.200,0.111
31.150,0.003,0.050,1.220,0.445
31.160,0.298,0.576,1.239,0.479
31.170,0.522,1.153,1.256,0.445
31.180,0.327,0.775,1.269,0.512
31.190,0.022,0.106,1.279,-0.893
31.200,-0.076,-0.111,1.286,2.720
31.210,-0.035,-0.078,1.290,7.471
31.220,-0.026,-0.093,1.289,1.650
31.230,-0.033,-0.092,1.285,-3.435
31.240,-0.029,-0.090,1.279,-2.867
31.250,-0.025,-0.074,1.272,-1.227
31.260,-0.020,-0.070,1.266,1.215
31.270,-0.017,-0.060,1.261,3.490
31.280,-0.012,-0.057,1.259,3.256
31.290,-0.009,-0.044,1.256,3.456
31.300,-0.005,-0.043,1.253,3.657
31.310,0.001,-0.030,1.248,1.081
31.320,0.008,-0.027,1.242,-2.632
31.330,0.013,-0.010,1.235,-2.432
31.340,0.021,-0.005,1.229,-1.227
31.350,0.030,0.009,1.222,-1.696
31.360,0.042,0.022,1.214,-1.629
31.370,0.052,0.049,1.208,-0.625
31.380,0.067,0.066,1.203,0.579
31.390,0.083,0.100,1.201,0.713
31.400,0.099,0.128,1.201,0.412
31.410,0.111,0.159,1.203,0.546
31.420,0.120,0.175,1.206,1.148
31.430,0.116,0.183,1.211,1.583
31.440,0.094,0.148,1.219,1.583
31.450,0.057,0.091,1.230,1.750
31.460,0.020,0.017,1.244,1.951
31.470,-0.010,-0.034,1.259,1.650
31.480,-0.027,-0.075,1.271,0.747
31.490,-0.036,-0.092,1.279,-0.391
31.500,-0.037,-0.105,1.281,-0.725
31.510,-0.037,-0.104,1.278,-1.562
31.520,-0.036,-0.107,1.272,-2.666
31.530,-0.036,-0.099,1.265,-2.499
31.540,-0.034,-0.098,1.259,-0.257
31.550,-0.035,-0.085,1.254,1.382
31.560,-0.033,-0.085,1.252,1.683
31.570,-0.033,-0.078,1.250,2.955
31.580,-0.030,-0.080,1.248,4.326
31.590,-0.028,-0.076,1.251,5.062
31.600,-0.028,-0.074,1.261,2.185
31.610,-0.024,-0.065,1.278,-0.826
31.620,-0.020,-0.069,1.302,-0.157
31.630,-0.018,-0.063,1.330,0.379
31.640,-0.017,-0.066,1.359,-1.696
31.650,-0.018,-0.060,1.390,-3.468
31.660,-0.014,-0.060,1.422,-4.104
31.670,-0.015,-0.058,1.454,-2.766
31.680,-0.016,-0.062,1.486,-1.027
31.690,-0.014,-0.051,1.517,-0.190
31.700,-0.014,-0.059,1.548,-0.592
31.710,-0.014,-0.054,1.578,-0.224
31.720,-0.012,-0.053,1.604,0.646
31.730,-0.012,-0.054,1.620,1.382
31.740,-0.012,-0.060,1.623,1.851
31.750,-0.011,-0.053,1.615,2.252
31.760,-0.010,-0.055,1.603,3.055
31.770,-0.010,-0.048,1.594,3.155
31.780,-0.008,-0.052,1.590,2.152
31.790,-0.009,-0.049,1.590,1.416
31.800,-0.007,-0.050,1.593,0.981
31.810,-0.007,-0.043,1.594,1.014
31.820,-0.005,-0.042,1.596,1.014
31.830,0.003,-0.025,1.599,1.248
31.840,0.010,-0.014,1.602,0.914
31.850,0.018,-0.000,1.606,0.914
31.860,0.032,0.000,1.611,0.345
31.870,0.039,0.015,1.618,-0.157
31.880,0.025,-0.004,1.625,-0.792
31.890,0.017,-0.026,1.632,-0.725
31.900,0.016,-0.047,1.638,0.312
31.910,-0.004,-0.054,1.641,1.516
31.920,-0.019,-0.057,1.642,1.616
31.930,-0.017,-0.052,1.641,0.914
31.940,-0.016,-0.056,1.640,-0.056
31.950,-0.014,-0.043,1.638,0.379
31.960,-0.013,-0.039,1.635,0.245
31.970,-0.012,-0.034,1.632,0.278
31.980,-0.033,-0.057,1.627,0.512
31.990,0.030,0.118,1.623,0.680
32.000,0.315,0.731,1.618,-0.056
32.010,0.443,1.144,1.616,-0.157
32.020,0.214,0.591,1.618,0.345
32.030,-0.023,0.038,1.628,-0.659
32.040,-0.074,-0.105,1.648,1.416
32.050,-0.026,-0.082,1.678,6.802
32.060,-0.017,-0.083,1.715,3.824
32.070,-0.021,-0.079,1.757,-2.198
32.080,-0.015,-0.075,1.801,-7.182
32.090,-0.009,-0.060,1.843,-7.751
32.100,-0.008,-0.054,1.879,1.315
32.110,-0.005,-0.043,1.907,8.039
32.120,0.001,-0.039,1.928,4.928
32.130,0.004,-0.028,1.941,0.780
32.140,0.006,-0.022,1.947,-0.190
32.150,0.011,-0.014,1.946,-0.157
32.160,0.017,-0.008,1.939,-0.257
32.170,0.024,0.011,1.927,-0.692
32.180,0.033,0.019,1.908,-1.361
32.190,0.044,0.034,1.886,-2.499
32.200,0.054,0.045,1.861,-2.934
32.210,0.067,0.071,1.833,-1.662
32.220,0.083,0.092,1.803,0.111
32.230,0.099,0.120,1.772,0.914
32.240,0.115,0.147,1.740,0.713
32.250,0.126,0.178,1.708,0.780
32.260,0.132,0.196,1.675,1.282
32.270,0.124,0.196,1.642,1.851
32.280,0.093,0.148,1.605,2.520
32.290,0.049,0.086,1.564,2.854
32.300,0.011,0.019,1.517,2.854
32.310,-0.016,-0.030,1.462,1.917
32.320,-0.033,-0.068,1.399,0.947
32.330,-0.041,-0.083,1.328,-0.725
32.340,-0.044,-0.091,1.252,-1.930
32.350,-0.043,-0.088,1.175,-2.097
32.360,-0.043,-0.086,1.099,-1.662
32.370,-0.042,-0.081,1.024,0.278
32.380,-0.043,-0.078,0.951,0.713
32.390,-0.043,-0.068,0.880,0.412
32.400,-0.044,-0.070,0.812,1.616
32.410,-0.042,-0.065,0.749,3.523
32.420,-0.040,-0.063,0.692,7.437
32.430,-0.037,-0.055,0.642,7.772
32.440,-0.036,-0.055,0.599,1.549
32.450,-0.034,-0.051,0.561,-2.800
32.460,-0.031,-0.053,0.527,-1.528
32.470,-0.028,-0.051,0.498,0.914
32.480,-0.027,-0.055,0.471,0.479
32.490,-0.025,-0.050,0.447,-3.134
32.500,-0.024,-0.053,0.424,-5.877
32.510,-0.024,-0.050,0.401,-4.472
32.520,-0.026,-0.052,0.376,-0.926
32.530,-0.024,-0.048,0.348,0.178
32.540,-0.023,-0.050,0.314,-1.562
32.550,-0.023,-0.048,0.273,-2.030
32.560,-0.024,-0.052,0.226,0.512
32.570,-0.023,-0.053,0.175,3.122
32.580,-0.022,-0.054,0.125,3.624
32.590,-0.021,-0.050,0.079,3.088
32.600,-0.021,-0.050,0.037,2.252
32.610,-0.014,-0.034,0.001,2.018
32.620,-0.008,-0.018,-0.029,1.884
32.630,-0.001,-0.002,-0.053,1.282
32.640,0.013,-0.001,-0.071,0.713
32.650,0.024,0.006,-0.086,0.780
32.660,0.011,-0.002,-0.097,0.479
32.670,-0.000,-0.025,-0.104,0.278
32.680,0.002,-0.044,-0.107,0.011
32.690,-0.011,-0.051,-0.107,0.880
32.700,-0.033,-0.057,-0.108,1.917
32.710,-0.035,-0.060,-0.113,1.583
32.720,-0.033,-0.062,-0.123,0.780
32.730,-0.032,-0.056,-0.136,0.211
32.740,-0.032,-0.052,-0.148,-0.090
32.750,-0.030,-0.045,-0.158,0.211
32.760,-0.044,-0.064,-0.165,0.111
32.770,-0.028,0.008,-0.172,0.178
32.780,0.206,0.475,-0.183,0.111
32.790,0.455,1.124,-0.198,0.981
32.800,0.321,0.882,-0.219,1.282
32.810,0.037,0.170,-0.245,0.011
32.820,-0.084,-0.108,-0.275,2.018
32.830,-0.048,-0.098,-0.309,7.036
32.840,-0.033,-0.093,-0.349,3.724
32.850,-0.039,-0.099,-0.392,-1.830
32.860,-0.036,-0.092,-0.436,-4.472
32.870,-0.030,-0.077,-0.478,-4.606
32.880,-0.026,-0.069,-0.517,1.483
32.890,-0.022,-0.060,-0.550,5.798
32.900,-0.019,-0.055,-0.578,2.955
32.910,-0.015,-0.047,-0.601,1.483
32.920,-0.012,-0.044,-0.618,2.152
32.930,-0.006,-0.034,-0.633,1.215
32.940,-0.000,-0.021,-0.652,-0.859
32.950,0.007,-0.007,-0.679,-1.963
32.960,0.011,-0.001,-0.721,-1.696
32.970,0.020,0.010,-0.778,-1.830
32.980,0.029,0.025,-0.845,-2.331
32.990,0.043,0.048,-0.912,-1.528
33.000,0.057,0.073,-0.968,0.312
33.010,0.075,0.103,-1.005,1.483
33.020,0.089,0.131,-1.022,0.780
33.030,0.102,0.160,-1.016,0.680
33.040,0.108,0.184,-0.988,0.981
33.050,0.106,0.192,-0.938,1.583
33.060,0.082,0.158,-0.872,2.051
33.070,0.043,0.096,-0.795,2.118
33.080,0.005,0.027,-0.714,1.616
33.090,-0.023,-0.027,-0.632,1.884
33.100,-0.043,-0.062,-0.554,1.282
33.110,-0.050,-0.083,-0.480,0.011
33.120,-0.055,-0.100,-0.412,-0.792
33.130,-0.054,-0.105,-0.350,-1.127
33.140,-0.053,-0.107,-0.293,-1.763
33.150,-0.051,-0.102,-0.240,-1.495
33.160,-0.052,-0.100,-0.194,0.245
33.170,-0.052,-0.098,-0.153,1.583
33.180,-0.052,-0.095,-0.117,1.449
33.190,-0.049,-0.089,-0.087,2.988
33.200,-0.049,-0.089,-0.062,4.761
33.210,-0.046,-0.085,-0.040,4.995
33.220,-0.044,-0.085,-0.019,3.423
33.230,-0.038,-0.082,-0.000,1.683
33.240,-0.038,-0.081,0.018,1.951
33.250,-0.035,-0.077,0.035,1.549
33.260,-0.034,-0.076,0.051,-0.659
33.270,-0.032,-0.075,0.065,-4.539
33.280,-0.032,-0.074,0.077,-4.807
33.290,-0.028,-0.071,0.087,-2.833
33.300,-0.029,-0.069,0.093,-1.395
33.310,-0.029,-0.068,0.096,-1.461
33.320,-0.030,-0.069,0.096,-1.729
33.330,-0.028,-0.067,0.095,-0.525
33.340,-0.029,-0.067,0.090,0.880
33.350,-0.028,-0.065,0.083,1.315
33.360,-0.029,-0.064,0.073,1.315
33.370,-0.028,-0.063,0.060,1.081
33.380,-0.027,-0.066,0.047,2.051
33.390,-0.025,-0.067,0.036,3.055
33.400,-0.026,-0.067,0.026,3.256
33.410,-0.024,-0.064,0.019,2.687
33.420,-0.026,-0.062,0.014,1.416
33.430,-0.024,-0.059,0.011,0.747
33.440,-0.024,-0.059,0.009,0.178
33.450,-0.019,-0.050,0.009,0.579
33.460,-0.010,-0.036,0.011,0.613
33.470,-0.003,-0.020,0.012,0.613
33.480,0.006,-0.013,0.015,0.111
33.490,0.024,-0.010,0.017,-0.692
33.500,0.024,-0.003,0.021,-0.659
33.510,0.006,-0.022,0.025,-0.424
33.520,0.001,-0.048,0.029,0.646
33.530,0.002,-0.059,0.034,1.081
33.540,-0.022,-0.064,0.040,1.416
33.550,-0.036,-0.069,0.046,1.483
33.560,-0.034,-0.069,0.053,1.148
33.570,-0.030,-0.062,0.060,0.713
33.580,-0.031,-0.055,0.068,0.646
33.590,-0.029,-0.048,0.076,1.048
33.600,-0.036,-0.054,0.085,0.245
33.610,-0.055,-0.056,0.093,0.579
33.620,0.077,0.192,0.102,1.048
33.630,0.412,0.868,0.110,0.278
33.640,0.477,1.140,0.118,-0.324
33.650,0.187,0.491,0.126,0.780
33.660,-0.053,-0.036,0.134,1.014
33.670,-0.072,-0.112,0.141,5.530
33.680,-0.039,-0.090,0.149,3.758
33.690,-0.044,-0.108,0.157,-4.104
33.700,-0.046,-0.102,0.166,-4.171
33.710,-0.040,-0.093,0.174,-1.495
33.720,-0.038,-0.085,0.182,2.219
33.730,-0.033,-0.074,0.189,3.824
33.740,-0.030,-0.067,0.196,2.118
33.750,-0.022,-0.062,0.203,1.549
33.760,-0.020,-0.053,0.209,3.456
33.770,-0.014,-0.046,0.215,1.717
33.780,-0.010,-0.037,0.219,-1.963
33.790,-0.004,-0.026,0.222,-2.331
33.800,-0.000,-0.015,0.221,-1.729
33.810,0.010,-0.003,0.217,-1.261
33.820,0.017,0.012,0.205,-1.562
33.830,0.029,0.030,0.173,-0.157
33.840,0.040,0.052,0.116,0.780
33.850,0.058,0.078,0.038,1.483
33.860,0.074,0.107,-0.051,0.680
33.870,0.089,0.138,-0.142,0.379
33.880,0.099,0.166,-0.228,0.613
33.890,0.104,0.180,-0.306,1.014
33.900,0.092,0.170,-0.373,0.813
33.910,0.064,0.123,-0.429,1.081
33.920,0.025,0.056,-0.473,1.215
33.930,-0.008,-0.008,-0.507,0.947
33.940,-0.033,-0.052,-0.534,0.646
33.950,-0.045,-0.081,-0.552,0.780
33.960,-0.052,-0.095,-0.564,0.245
33.970,-0.053,-0.103,-0.569,-0.525
33.980,-0.055,-0.101,-0.566,-1.294
33.990,-0.051,-0.098,-0.559,-1.595
34.000,-0.051,-0.092,-0.547,-0.725
34.010,-0.046,-0.087,-0.534,1.115
34.020,-0.046,-0.082,-0.519,1.650
34.030,-0.043,-0.079,-0.503,2.486
34.040,-0.044,-0.073,-0.488,3.557
34.050,-0.041,-0.069,-0.472,2.453
34.060,-0.041,-0.066,-0.455,3.088
34.070,-0.037,-0.064,-0.436,3.022
34.080,-0.037,-0.062,-0.415,1.048
34.090,-0.033,-0.062,-0.392,0.412
34.100,-0.033,-0.059,-0.366,-0.960
34.110,-0.031,-0.059,-0.338,-3.034
34.120,-0.032,-0.056,-0.309,-3.803
34.130,-0.028,-0.055,-0.281,-3.268
34.140,-0.030,-0.055,-0.252,-2.131
34.150,-0.028,-0.056,-0.225,-1.662
34.160,-0.028,-0.054,-0.199,-1.093
34.170,-0.027,-0.055,-0.174,-0.692
34.180,-0.029,-0.053,-0.151,0.245
34.190,-0.025,-0.055,-0.128,1.248
34.200,-0.026,-0.052,-0.105,0.813
34.210,-0.025,-0.052,-0.083,1.181
34.220,-0.026,-0.052,-0.062,1.382
34.230,-0.024,-0.051,-0.041,2.553
34.240,-0.026,-0.046,-0.023,2.453
34.250,-0.023,-0.047,-0.005,2.419
34.260,-0.025,-0.044,0.012,1.683
34.270,-0.023,-0.043,0.031,1.449
34.280,-0.023,-0.039,0.051,0.813
34.290,-0.020,-0.039,0.072,0.546
34.300,-0.021,-0.034,0.092,0.546
34.310,-0.018,-0.033,0.111,0.379
34.320,-0.020,-0.034,0.128,-0.625
34.330,-0.018,-0.034,0.144,-0.558
34.340,-0.018,-0.026,0.159,-0.625
34.350,-0.008,-0.017,0.173,-0.190
34.360,-0.003,-0.003,0.188,0.245
34.370,0.006,0.007,0.202,0.713
34.380,0.019,0.010,0.216,0.914
34.390,0.034,0.018,0.229,1.349
34.400,0.017,0.010,0.241,1.081
34.410,0.007,-0.024,0.252,0.914
34.420,0.010,-0.041,0.262,0.981
34.430,-0.004,-0.050,0.273,1.382
34.440,-0.029,-0.052,0.282,1.750
34.450,-0.029,-0.055,0.291,1.115
34.460,-0.028,-0.050,0.298,1.148
34.470,-0.025,-0.048,0.305,0.813
34.480,-0.026,-0.040,0.311,0.412
34.490,-0.024,-0.041,0.318,-0.224
34.500,-0.050,-0.054,0.326,-0.826
34.510,0.014,0.073,0.334,0.077
34.520,0.326,0.636,0.342,0.044
34.530,0.532,1.176,0.351,0.211
34.540,0.308,0.751,0.361,0.144
34.550,0.004,0.077,0.370,-0.725
34.560,-0.084,-0.108,0.377,5.028
34.570,-0.043,-0.078,0.385,6.668
34.580,-0.043,-0.096,0.392,-2.800
34.590,-0.044,-0.100,0.399,-5.074
34.600,-0.041,-0.088,0.408,-0.926
34.610,-0.034,-0.082,0.419,1.717
34.620,-0.032,-0.070,0.432,2.185
34.630,-0.026,-0.063,0.446,2.486
34.640,-0.023,-0.054,0.461,2.854
34.650,-0.018,-0.050,0.476,3.557
34.660,-0.016,-0.042,0.491,2.352
34.670,-0.008,-0.037,0.506,-0.792
34.680,-0.005,-0.026,0.519,-2.566
34.690,0.004,-0.019,0.530,-1.294
34.700,0.008,-0.008,0.537,-0.826
34.710,0.018,0.004,0.538,-1.160
34.720,0.025,0.023,0.534,0.345
34.730,0.039,0.040,0.524,1.282
34.740,0.052,0.067,0.510,1.549
34.750,0.073,0.094,0.495,0.512
34.760,0.086,0.125,0.481,-0.190
34.770,0.099,0.152,0.467,0.044
34.780,0.104,0.180,0.455,0.981
34.790,0.103,0.181,0.443,1.315
34.800,0.080,0.149,0.430,1.181
34.810,0.047,0.080,0.417,1.014
34.820,0.006,0.012,0.405,1.148
34.830,-0.020,-0.044,0.396,0.312
34.840,-0.039,-0.077,0.391,0.546
34.850,-0.045,-0.103,0.389,0.479
34.860,-0.051,-0.111,0.390,0.178
34.870,-0.051,-0.116,0.396,-0.424
34.880,-0.051,-0.110,0.406,-1.461
34.890,-0.049,-0.107,0.421,-2.231
34.900,-0.049,-0.099,0.439,0.044
34.910,-0.044,-0.097,0.460,0.579
34.920,-0.046,-0.092,0.484,1.917
34.930,-0.045,-0.093,0.507,3.390
34.940,-0.045,-0.086,0.532,2.754
34.950,-0.038,-0.084,0.560,2.587
34.960,-0.040,-0.079,0.594,2.888
34.970,-0.035,-0.081,0.635,1.784
34.980,-0.035,-0.076,0.679,1.483
34.990,-0.031,-0.075,0.724,0.144
35.000,-0.034,-0.071,0.768,-1.528
35.010,-0.029,-0.073,0.809,-2.599
35.020,-0.029,-0.071,0.847,-2.097
35.030,-0.024,-0.075,0.882,-1.528
35.040,-0.025,-0.069,0.914,-1.160
35.050,-0.024,-0.071,0.942,-1.160
35.060,-0.027,-0.069,0.966,-0.659
35.070,-0.023,-0.072,0.987,0.278
35.080,-0.025,-0.069,1.005,0.847
35.090,-0.021,-0.073,1.021,0.780
35.100,-0.022,-0.069,1.035,0.445
35.110,-0.020,-0.071,1.049,0.178
35.120,-0.023,-0.067,1.064,1.683
35.130,-0.018,-0.071,1.079,3.189
35.140,-0.019,-0.067,1.094,2.754
35.150,-0.016,-0.068,1.108,2.620
35.160,-0.020,-0.064,1.122,1.784
35.170,-0.019,-0.065,1.134,1.483
35.180,-0.021,-0.057,1.146,0.713
35.190,-0.017,-0.062,1.156,0.947
35.200,-0.018,-0.059,1.162,1.282
35.210,-0.014,-0.058,1.163,0.780
35.220,-0.016,-0.053,1.160,-0.090
35.230,-0.014,-0.055,1.154,-0.257
35.240,-0.013,-0.045,1.148,-0.324
35.250,-0.003,-0.041,1.141,-0.157
35.260,0.002,-0.026,1.134,0.613
35.270,0.012,-0.014,1.126,0.713
35.280,0.024,-0.007,1.120,0.613
35.290,0.038,0.001,1.116,0.345
35.300,0.019,-0.005,1.115,0.278
35.310,0.011,-0.038,1.116,0.312
35.320,0.010,-0.051,1.116,0.813
35.330,-0.005,-0.063,1.114,1.416
35.340,-0.026,-0.060,1.109,1.784
35.350,-0.022,-0.063,1.102,1.148
35.360,-0.022,-0.059,1.093,0.278
35.370,-0.019,-0.058,1.082,-0.023
35.380,-0.020,-0.045,1.071,0.379
35.390,-0.015,-0.042,1.059,0.479
35.400,-0.041,-0.058,1.048,-0.123
35.410,0.026,0.089,1.037,0.245
35.420,0.331,0.686,1.025,0.445
35.430,0.498,1.144,1.014,0.479
35.440,0.261,0.652,1.004,0.178
35.450,-0.013,0.046,0.994,-0.792
35.460,-0.080,-0.109,0.985,3.022
35.470,-0.030,-0.082,0.977,7.069
35.480,-0.028,-0.088,0.973,2.252
35.490,-0.028,-0.091,0.976,-3.502
35.500,-0.026,-0.079,0.988,-6.413
35.510,-0.019,-0.073,1.009,-3.502
35.520,-0.019,-0.056,1.036,3.657
35.530,-0.013,-0.051,1.068,5.999
35.540,-0.012,-0.040,1.101,3.088
35.550,-0.005,-0.035,1.134,1.650
35.560,-0.003,-0.024,1.167,1.750
35.570,0.006,-0.022,1.199,0.211
35.580,0.008,-0.011,1.231,-0.960
35.590,0.018,-0.003,1.261,-1.328
35.600,0.023,0.011,1.287,-1.160
35.610,0.035,0.020,1.310,-1.261
35.620,0.044,0.041,1.328,-1.495
35.630,0.060,0.055,1.346,-1.361
35.640,0.072,0.080,1.365,-0.592
35.650,0.092,0.106,1.389,-0.424
35.660,0.104,0.143,1.421,-0.023
35.670,0.119,0.171,1.459,-0.023
35.680,0.121,0.198,1.501,0.278
35.690,0.122,0.196,1.547,0.646
35.700,0.092,0.159,1.593,1.717
35.710,0.054,0.092,1.636,2.219
35.720,0.014,0.031,1.675,2.051
35.730,-0.012,-0.029,1.709,2.051
35.740,-0.032,-0.059,1.738,1.081
35.750,-0.036,-0.083,1.765,-0.023
35.760,-0.040,-0.089,1.790,-1.027
35.770,-0.038,-0.093,1.812,-2.030
35.780,-0.040,-0.086,1.830,-3.268
35.790,-0.037,-0.089,1.844,-1.963
35.800,-0.040,-0.079,1.854,-0.056
35.810,-0.037,-0.077,1.861,0.412
35.820,-0.038,-0.068,1.867,1.449
35.830,-0.033,-0.070,1.872,2.453
35.840,-0.035,-0.062,1.871,5.229
35.850,-0.030,-0.059,1.860,6.099
35.860,-0.031,-0.052,1.839,1.549
35.870,-0.026,-0.058,1.811,-1.997
35.880,-0.028,-0.049,1.780,-1.461
35.890,-0.021,-0.049,1.748,-0.893
35.900,-0.021,-0.043,1.718,-1.896
35.910,-0.016,-0.045,1.690,-3.569
35.920,-0.017,-0.040,1.666,-4.338
35.930,-0.015,-0.044,1.643,-4.104
35.940,-0.018,-0.038,1.623,-2.064
35.950,-0.015,-0.044,1.603,0.178
35.960,-0.016,-0.039,1.584,0.144
35.970,-0.013,-0.043,1.565,-0.792
35.980,-0.015,-0.040,1.547,-0.023
35.990,-0.012,-0.046,1.529,1.784
36.000,-0.016,-0.037,1.512,2.720
36.010,-0.012,-0.044,1.497,2.587
36.020,-0.015,-0.041,1.483,3.022
36.030,-0.012,-0.041,1.471,2.654
36.040,-0.015,-0.036,1.459,1.717
36.050,-0.012,-0.042,1.447,0.780
36.060,-0.013,-0.035,1.437,0.613
36.070,-0.007,-0.035,1.426,0.713
36.080,-0.004,-0.020,1.418,0.680
36.090,0.006,-0.010,1.411,0.813
36.100,0.009,0.008,1.406,0.880
36.110,0.029,0.008,1.403,0.646
36.120,0.036,0.023,1.404,0.044
36.130,0.021,0.003,1.410,-0.592
36.140,0.010,-0.020,1.419,-0.458
36.150,0.016,-0.042,1.433,0.312
36.160,-0.007,-0.048,1.453,0.780
36.170,-0.021,-0.057,1.479,1.248
36.180,-0.022,-0.054,1.510,0.747
36.190,-0.018,-0.053,1.544,0.479
36.200,-0.020,-0.043,1.580,-0.123
36.210,-0.015,-0.038,1.618,-0.023
36.220,-0.018,-0.029,1.656,0.379
36.230,-0.034,-0.054,1.692,1.181
36.240,0.010,0.100,1.724,1.181
36.250,0.287,0.684,1.752,0.546
36.260,0.444,1.164,1.774,0.312
36.270,0.237,0.666,1.791,0.312
36.280,-0.014,0.078,1.802,-0.357
36.290,-0.075,-0.091,1.809,1.282
36.300,-0.031,-0.072,1.812,6.567
36.310,-0.018,-0.073,1.810,4.226
36.320,-0.025,-0.066,1.806,-1.963
36.330,-0.016,-0.061,1.799,-6.479
36.340,-0.014,-0.047,1.789,-7.048
36.350,-0.008,-0.042,1.777,2.252
36.360,-0.009,-0.032,1.762,8.842
36.370,-0.002,-0.031,1.745,5.765
36.380,-0.001,-0.016,1.725,1.817
36.390,0.006,-0.013,1.702,0.646
36.400,0.009,0.004,1.678,0.579
36.410,0.018,0.008,1.651,-0.725
36.420,0.020,0.020,1.622,-0.592
36.430,0.032,0.026,1.590,-0.859
36.440,0.037,0.046,1.556,-2.164
36.450,0.051,0.055,1.520,-2.867
36.460,0.061,0.081,1.482,-2.097
36.470,0.079,0.099,1.444,-0.625
36.480,0.092,0.133,1.405,1.248
36.490,0.110,0.155,1.365,1.315
36.500,0.118,0.188,1.322,0.713
36.510,0.126,0.205,1.269,0.880
36.520,0.114,0.207,1.205,1.416
36.530,0.090,0.159,1.128,1.483
36.540,0.044,0.101,1.039,2.285
36.550,0.007,0.033,0.941,1.784
36.560,-0.023,-0.014,0.837,1.215
